-0.770000000000000
1.99465119651563
-3.50153610404577
-0.751885311027091
1.98776507849955
-3.44842343253303
-0.688774253452996
2.05587411868722
-3.43031681315499
-0.690670458278306
2.06897468629926
-3.38721987642556
-0.617577555707208
2.12706315148545
-3.35413625179680
-0.634499174749382
2.10513588572270
-3.34106956726096
-0.556438942822091
2.18818926221297
-3.30302344895267
-0.568400485352288
2.19121965628109
-3.26500152075116
-0.510387425379155
2.23422344577214
-3.24200740388297
-0.502403383156743
2.25219701144864
-3.20904471652486
-0.429451975756954
2.30513673738757
-3.17111707340693
-0.421536816672983
2.32803901137678
-3.11322808541634
-0.373661515422944
2.39090022531113
-3.09538135920123
-0.360829677154023
2.38371677558818
-3.05758049677525
-0.308044902247357
2.43648506350347
-3.04482909512265
-0.310310785922921
2.45420149564488
-2.99713074580364
-0.237630917845403
2.52186248428701
-2.94448903456073
-0.195008881730699
2.57446444778437
-2.83690754092542
-0.0824482549525936
2.65200381096426
-2.80938983782562
-0.0199526081508292
2.75947700551881
-2.68193949119388
0.0524744951608651
2.76688047039635
-2.73456005957646
-0.000170501014989179
2.74421065219176
-2.74725509374290
-0.0428911447690341
2.66146400553627
-2.84502813629669
-0.135690975896482
2.58863699348625
-2.84788272128701
-0.103573525508803
2.64572608791100
-2.83082237382068
-0.0965423156461832
2.65772776987971
-2.79385060967624
-0.0246008588918322
2.71463853004738
-2.76697093491790
-0.0277526579865212
2.73145486903946
-2.72518684551112
0.0489987945558042
2.79317329783588
-2.66850182693961
0.0756500168303863
2.80979033815350
-2.61191935382263
0.177197537924206
2.98630252282759
-2.31544288953439
0.813637898296067
4.03770639619191
-0.884075885823730
2.22496765015588
4.71899851445795
-1.65282178243621
0.0911833578436702
2.30017544609221
-3.06668400673638
-0.0227184017951398
2.82123377219281
-2.64066597333233
0.168258960967493
2.97217008686443
-2.45977108370087
0.294112049114207
3.03798099759137
-2.44400272581489
0.299837479256476
3.03366312561024
-2.41836427377148
0.340431882004459
3.08921310627977
-2.38285908742229
0.365891902337309
3.11462758945058
-2.36249051200465
0.411214199970542
3.15990323983148
-2.33226187777506
0.411395449722341
3.17003673735651
-2.27217649964392
0.476432341878561
3.23002477754792
-2.23723767681215
0.486321582555579
3.22486407187933
-2.21244869240892
0.561059894061517
3.30955134813579
-2.15281281313196
0.575644015255035
3.31408335077289
-2.11833328888959
0.665070701904223
3.42845684127368
-2.04401335244367
0.719336727040921
3.49266859850398
-1.92485621905581
0.858438881315855
3.63671541906554
-1.81586508613407
0.927373973349857
3.71059411764705
-1.71704313288308
1.07113883008420
3.83930152737378
-1.62339351995460
1.11973029712782
3.88283450015467
-1.56491938910164
1.18814523910454
3.91618990702788
-1.58662386283353
1.10638053999538
3.79436463850326
-1.69851004407367
1.02443310348162
3.75735560490444
-1.75558101581892
0.937299853283709
3.66015973670608
-1.80283984080205
0.939977733498153
3.65777398487207
-1.83028956115561
0.907463708933663
3.63019532118873
-1.80793319807804
0.944754765443293
3.69742073859772
-1.79577375150301
0.926847910255334
3.67944725152511
-1.77881419976973
1.00374017230079
3.72627189620920
-1.74205749929692
1.00042860254043
3.74789173102525
-1.70550658425842
1.05691027428695
3.83430383680873
-1.64916436626107
1.07818228352645
3.82050531717444
-1.63303373402602
1.13924174923723
3.86149329883479
-1.59711755307156
1.13508581370557
3.87226493191464
-1.59141866539907
1.17071164283785
3.90781739026419
-1.57593988918100
1.12111642647349
3.88814787176833
-1.56568401845238
1.19629737869150
3.92825359865432
-1.55565382280421
1.18125173811741
3.91813181779621
-1.55085204707916
1.21097676822362
3.95777980101709
-1.52628141107161
1.20546975763230
3.95219484538776
-1.50194460922867
1.25972802041115
4.01637427352346
-1.48784431035511
1.25874889636848
3.99531543387733
-1.46398315731992
1.31252975134419
4.05901570103154
-1.44036376676759
1.29606797749971
4.03747247598461
-1.41198872883048
1.35436099360331
4.09568318643666
-1.38886060684507
1.34240624531363
4.07864528707209
-1.38598193707014
1.39020120545823
4.13635625983762
-1.35335522840991
1.38274337431376
4.11881361421907
-1.33098296213814
1.44503027987701
4.17601488751456
-1.30886759162576
1.42205947813728
4.14795764510445
-1.29201154207228
1.47882855334563
4.23463948071776
-1.25541721023991
1.46533511827639
4.19605801669731
-1.24908696419067
1.52157681449380
4.26721090425846
-1.21302314302605
1.51255131260541
4.25809582374981
-1.19222805663158
1.57825631252151
4.30871048490368
-1.16170398542283
1.57368954370554
4.30405262709071
-1.15645318009566
1.59884876542378
4.36412001956558
-1.10147786137856
1.62373176698969
4.36391046171258
-1.08178021979104
1.68833636800844
4.45842178328671
-0.992362415400752
1.75266041861461
4.49765184465151
-0.963226577589663
1.83670179970864
4.62659853701440
-0.849374804816954
1.85545842318745
4.58025978265687
-0.880809164392668
1.89392823217734
4.61363353516305
-0.902531692248493
1.76210920125454
4.45171777964374
-1.03454439271486
1.73999933667126
4.45951053295829
-1.03184923830204
1.71759667657256
4.44700984393006
-1.01444816948312
1.72489929121181
4.47921379356295
-0.982343094481389
1.74690528316270
4.48612049524965
-0.965535889061257
1.78861278752584
4.56272809498034
-0.919028396321660
1.81501997213547
4.55903477154385
-0.877822426495918
1.87612503775891
4.62003873672985
-0.821919756750708
2.04192621829457
5.15573823552305
0.198677869006847
3.47242178096423
6.74113154629648
1.34396874032131
3.42261002650518
5.00121698100015
-1.44604881962366
1.08748928935515
4.10599288534615
-1.11137645382183
1.71205793783565
4.51545763898988
-0.862015771262538
1.94631437432912
4.68960965570863
-0.817968346757183
1.91025703545808
4.65344738357358
-0.784235720764161
1.98388439225154
4.72196930512246
-0.760819399220304
1.95719495031663
4.68517393752402
-0.762720853376639
2.00018725000065
4.73305983274152
-0.749941519636324
1.97285986655152
4.72562557769116
-0.732482799397312
2.02521141027406
4.74786979439757
-0.730346058898857
2.02224052668264
4.75979114014478
-0.683532629070782
2.07894589664802
4.83138830762216
-0.647043805389513
2.08032623654629
4.83766002507015
-0.635880847733494
2.13638029839275
4.91360505641774
-0.555044980247008
2.19210686998677
4.92922220141889
-0.514537391205032
2.27250477503746
5.02951029578401
-0.434359232883116
2.32257287329842
5.09946821130762
-0.349511621431016
2.44231006068922
5.20909485599207
-0.239995636750661
2.48671526941719
5.23838917416710
-0.210812322376108
2.53578746809484
5.28235014660617
-0.231962685362161
2.46952566185371
5.18597679063802
-0.328447696170529
2.39792889245238
5.10926816025340
-0.415268288566450
2.30099623838192
5.00722334621036
-0.477425359513421
2.27872681496694
4.98984147613312
-0.504919769077715
2.22611977446260
4.96212171460788
-0.492752340331365
2.26817430614830
4.99406326327409
-0.465923859264060
2.23988963641334
4.95566536091363
-0.494435074695340
2.25626502884790
5.00692728353117
-0.483286698193736
2.25229978431689
4.99284834443707
-0.477479403998017
2.30299324104282
5.05342789431954
-0.437013828943432
2.28334477467257
5.01866532131880
-0.431890572391879
2.33335379835123
5.06356005109123
-0.432110196166172
2.28801976278256
5.02811154687490
-0.422673224488794
2.32234215629170
5.06731930954720
-0.423580143922791
2.29632050487768
5.01118287767936
-0.459831403321470
2.30995437227157
5.03970182758758
-0.461427413775764
2.28324335997740
5.01287577337936
-0.473368548572204
2.28618710732205
5.02070436699577
-0.460655143149112
2.25878529148901
4.96818729824965
-0.498287495062689
2.27603762755955
5.00532429485961
-0.476265863951508
2.24294386853891
4.99711512247952
-0.469590471511103
2.27950380538594
4.99355958472586
-0.478261501466056
2.24571726703633
4.98465752319616
-0.497279099553807
2.27658412042035
5.01540881748981
-0.466643373505076
2.25710427047811
4.98081338521823
-0.476354393035109
2.27227766016822
5.02587118201670
-0.476412189833152
2.25210427047762
4.97558220154644
-0.481816757561853
2.27658412042008
5.00994647549777
-0.482568051855443
2.24071726703664
4.97896407358523
-0.483665990325854
2.27450380538611
5.00763510354079
-0.480110452571944
2.24294386853859
4.98095971109992
-0.486901280192326
2.25603762755945
4.99893807998899
-0.494038276802034
2.24378529148949
4.97157043190263
-0.481521208055846
2.25618710732203
5.00385702647979
-0.484349801672370
2.23324335997725
4.96579816127594
-0.497523747464081
2.27495437227164
5.01739417173030
-0.461042697372416
2.26632050487834
5.00864543112886
-0.414906265504503
2.36734215629114
5.12955235056311
-0.359114028176556
2.39801976278258
5.11511537888544
-0.323665523960523
2.41335379835184
5.13533500265980
-0.378560253733060
2.34834477467232
5.06521174610832
-0.403797680732068
2.33299324104208
5.02474617105380
-0.479377230614297
2.20729978431709
4.91393887685779
-0.550298291520665
2.18626502884760
4.91279050035625
-0.576560214138322
2.14488963641327
4.86130171578760
-0.593162311777246
2.15317430614773
4.89447323472019
-0.570103860443752
2.14111977446333
4.88730580597390
-0.602384098918804
2.15372681496681
4.89480021553809
-0.560002228841495
2.15599623838166
4.90195728648530
-0.547957414798027
2.21792889245198
4.99377787888147
-0.366248784413695
2.71452566185390
5.98026288968937
1.09012457155434
4.35578746809489
7.08641325267531
0.831163599115516
2.34671526941711
4.21722993830137
-1.28313071905963
1.85731006068936
4.79771395362072
-0.677757363744005
2.01757287329878
4.82286634216833
-0.647715279267547
2.09750477503768
4.85768818384648
-0.653003373632601
2.08210686998650
4.81718059480493
-0.663620518633683
2.09638029839270
4.83634472731816
-0.634565549981559
2.08032623654646
4.79518176966184
-0.680837267429483
2.06894589664878
4.79869294598082
-0.662434434906976
2.04224052668218
4.76187951615300
-0.714355780653935
2.06021141027382
4.79974277565407
-0.686599997360458
2.04285986655187
4.76728405541549
-0.684165742310206
2.07018725000086
4.80950472167524
-0.682051637527638
2.04719495031598
4.77640617583128
-0.680256269929135
2.08388439225148
4.85798985428749
-0.623778191478310
2.10525703545860
4.85425722829436
-0.587615919343368
2.18631437432915
4.96020980378907
-0.501767936061512
2.24205793783518
4.98084912123003
-0.456232689705350
2.34248928935491
5.12117675542791
-0.351008594051640
2.38261002650552
5.13119431537295
-0.351094028755243
2.37242178096371
5.10590344405855
-0.416487339528607
2.25692621829463
4.94530581830107
-0.567186838321737
2.14612503775919
4.83940314855556
-0.678190803508034
2.01001997213562
4.70819717872971
-0.779497480071287
1.96361278752586
4.68168968599036
-0.826105079801731
1.87190528316258
4.60988248057048
-0.868011781488904
1.87489929121191
4.60777740556846
-0.870215731121729
1.84259667657252
4.58037633674960
-0.902715042093252
1.84999933667109
4.59268118233685
-0.900507795407909
1.80210920125423
4.52969388280329
-0.938592039888714
1.80392823217761
4.55641641065864
-0.931965792394825
1.79045842318795
4.51785077023478
-0.955627038037230
1.77170179970864
4.52399899746232
-0.954573730400050
1.74266041861411
4.47486315965094
-0.993803791764954
1.73333636800853
4.47044535526054
-1.02831511333902
1.68373176698964
4.38074771367326
-1.08310555548631
1.66884876542359
4.40577239495605
-1.10817294796076
1.61368954370557
4.33552158962842
-1.12851509014807
1.61325631252213
4.34499751842010
-1.16412975130205
1.56755131260518
4.28420243202570
-1.18501467079316
1.55657681449343
4.30813861086114
-1.19616755835424
1.51033511827696
4.22180836481179
-1.24258609433391
1.50382855334570
4.23521403297949
-1.25926792994723
1.46705947813758
4.18835798342572
-1.28621068753697
1.46003027987699
4.20624261291368
-1.29341196083247
1.42774337431378
4.14387034664152
-1.32586931521431
1.42520120545830
4.15124363798145
-1.33858028797941
1.37740624531338
4.10336496820667
-1.36654238861478
1.37436099360328
4.11023684622152
-1.37975309906694
1.32106797749955
4.04686180828411
-1.43320987402030
1.32252975134389
4.06324241773150
-1.44691014117444
1.26874889636877
3.98938126469673
-1.49085130152833
1.26472802041076
4.00028096582306
-1.48003072966432
1.23046975763249
3.97094416397983
-1.51944577403456
1.21597676822367
3.95637352797234
-1.52409375725537
1.17625173811733
3.91157175224772
-1.56897197639728
1.18629737869092
3.91654155659909
-1.57907770328357
1.13611642647332
3.86628568587053
-1.60940818478728
1.11571164283826
3.87080690965253
-1.62996064313712
1.08508581370513
3.79010802198002
-1.67573227621700
1.07424174923700
3.82419184102563
-1.67672025787728
1.03818228352681
3.75806120879065
-1.71292173824292
1.04691027428717
3.77171899079337
-1.71433384402633
1.00042860253997
3.73516807575484
-1.72095367884213
1.05874017230038
3.81841137528174
-1.65277832352651
1.07184791025551
3.78145182354888
-1.65480483645384
1.11975476544279
3.83929237697383
-1.68703025386275
1.00746370893303
3.71693601389633
-1.75445159017908
0.969977733498098
3.68438573424987
-1.85206583834536
0.807299853284235
3.50664455923235
-1.98486997014738
0.754433103482186
3.49871553097767
-2.00786093654840
0.716380539995814
3.43060171221814
-2.04603566802389
0.688145239104833
3.43230618594974
-2.04939107489740
0.649730297128162
3.37383205509685
-2.07792404767795
0.641138830084399
3.41518244216880
-2.07663145740461
0.652373973350104
3.38636048891779
-2.08551015598605
0.703438881315967
3.57736935599576
-1.52955697654754
1.69433672704090
4.99821222260788
-0.0487687337778682
2.47007070190406
4.25389228616238
-2.37814222427867
-0.164355984745084
2.74941276191999
-2.43767422691607
0.391059894061262
3.11977688264275
-2.32736150317210
0.441321582555369
3.18498789823949
-2.32220079750344
0.416432341878213
3.15004907540806
-2.34718883769487
0.386395449721139
3.10496369727667
-2.37732233522019
0.376214199971448
3.10973506304679
-2.37759798560148
0.335891902337540
3.04936648762917
-2.42301246877213
0.330431882004645
3.06386130127996
-2.43856244944132
0.284837479256524
3.00322284923662
-2.47424457746048
0.264112049114928
3.00745449135067
-2.48505548818744
0.238258960967359
2.95155960171927
-2.51599180285900
0.257281598204770
3.01054156831524
-2.49205012895926
0.226183357843354
2.96940379261548
-2.48822706059386
0.264967650156329
3.02314968922799
-2.45951917885982
0.278637898295657
3.01678268551739
-2.42592305222376
0.357197537923841
3.11030622122913
-2.36743523689779
0.370650016830693
3.12872374811222
-2.33405227721574
0.433998794555256
3.19703872954073
-2.27077070601214
0.412247342012885
3.12025464013402
-2.37258704500383
0.360399141107436
3.06337496537602
-2.47949780517215
0.193457684354476
2.85640320123052
-2.64649948714084
0.0564264744918092
2.76434285376426
-2.74358858156557
-0.0456909758960070
2.64719743875492
-2.85076156951552
-0.112891144769322
2.61997048130878
-2.86801492286001
-0.160170501014606
2.56266551547488
-2.94034510465538
-0.172525504838843
2.56528608385785
-2.91774856953287
-0.204952608150539
2.50783573722617
-2.99022176408740
-0.227448254953113
2.51031803412639
-2.98276112726724
-0.275008881730546
2.46273654049075
-3.02036309076455
-0.272630917845342
2.46009482924824
-3.04302407940664
-0.320310785923624
2.38239647992928
-3.10574051154803
-0.353044902248153
2.39964507827634
-3.09350879946327
-0.380829677154190
2.32184421585041
-3.15132534974032
-0.423661515423158
2.30899748963568
-3.17918656367464
-0.481536816674007
2.21110850164511
-3.26208883766417
-0.519451975756611
2.21318085852651
-3.26002856360342
-0.552403383156446
2.14021817116844
-3.33300212927989
-0.605387425378927
2.13722405430029
-3.36600591877053
-0.668400485352129
2.07920212609917
-3.40903631283862
-0.701438942822000
2.05615600779054
-3.43208968932923
-0.729499174749370
1.99808932325475
-3.48016242356644
-0.757577555707256
1.99000569862602
-3.49325088875223
-0.790670458278422
1.93190876189698
-3.55635145636424
-0.808774253452462
1.91380214251862
-3.57946049655223
-0.856885311027344
1.85068947100591
-3.62757437853576
-0.880000000000322
1.85757437853609
-3.63068947100559
-0.923114688973301
1.79946049655256
-3.67880214251865
-0.941225746547464
1.79635145636456
-3.70190876189665
-0.989329541722222
1.73825088875255
-3.76000569862570
-1.01242244429339
1.72016242356604
-3.75308932325515
-1.04550082525056
1.67208968932883
-3.80615600779094
-1.05856105717721
1.67403631283858
-3.81420212609957
-1.11659951464708
1.62600591877049
-3.85722405430033
-1.09961257462028
1.62300212927949
-3.87021817116847
-1.14759661684276
1.55502856360302
-3.93818085852691
-1.17554802424332
1.57208883766377
-3.87610850164479
-1.15346318332736
1.57918656367461
-3.88899748963536
-1.12633848457749
1.65132534974101
-3.81184421585045
-1.10417032284646
1.57350879946359
-3.93964507827674
-1.20695509775249
1.57574051154835
-3.96739647992860
-1.33468921407702
1.34302407940696
-4.15009482924756
-1.40236908215458
1.32536309076488
-4.18273654049042
-1.47499111827010
1.23276112726721
-4.25531803412607
-1.51755174504825
1.24022176408736
-4.26783573722585
-1.55004739185011
1.17274856953283
-4.29528608385825
-1.56747449516037
1.17534510465534
-4.28766551547528
-1.59482949898460
1.12801492285961
-4.36497048130882
-1.60210885522989
1.17576156951512
-4.31219743875496
-1.59430902410392
1.25858858156517
-3.82934285376466
-0.531426474491737
2.83649948714044
-2.19640320123092
0.301542315646317
2.10449780517211
-4.54337496537570
-2.48539914110880
0.277587045004515
-4.90525464013370
-2.02224734201353
0.745770706012103
-4.67203872954005
-1.81399879455518
0.954052277216062
-4.52872374811189
-1.83065001683062
0.872435236898108
-4.60530622122845
-1.82219753792520
0.915923052223723
-4.57678268551707
-1.88363789829630
0.819519178859784
-4.64814968922802
-1.90496765015697
0.843227060593458
-4.64440379261516
-1.94618335784400
0.787050128960301
-4.71054156831528
-1.94728159820470
0.775991802858597
-4.69155960171967
-1.98825896096657
0.715055488186683
-4.75245449135070
-1.99911204911414
0.744244577460079
-4.73822284923702
-2.01483747925717
0.708562449440917
-4.77886130128000
-2.02543188200457
0.708012468771730
-4.76436648762957
-2.04089190233675
0.702597985601442
-4.76473506304755
-2.01121419997066
0.762322335220156
-4.71496369727671
-1.97139544972178
0.777188837695551
-4.69504907540737
-1.93643234187742
0.842200797503764
-4.64998789823953
-1.90632158255530
0.817361503172059
-4.62477688264242
-1.86605989406191
0.877674226916032
-4.60941276191967
-1.91064401525628
0.803142224278635
-4.69889228616170
-1.98007070190471
0.713768733778192
-4.79321222260792
-2.11433672704082
0.559556976548222
-4.94736935599616
-2.23843888131661
0.485510155986375
-5.00636048891674
-2.30737397335003
0.396631457404570
-5.09018244216884
-2.34113883008361
0.392924047677546
-5.09883205509761
-2.39473029712809
0.319391074896279
-5.15230618595014
-2.40814523910404
0.351035668024212
-5.14560171221854
-2.43138053999574
0.287860936548364
-5.19371553097879
-2.45443310348139
0.294869970146983
-5.18664455923239
-2.48229985328272
0.242065838345683
-5.23938573424955
-2.47997773349803
0.254451590179402
-5.23193601389565
-2.52246370893439
0.192030253863075
-5.28429237697351
-2.53975476544343
0.204804836453799
-5.27645182354892
-2.58184791025615
0.137778323526837
-5.32841137528178
-2.59874017230102
0.145953678843171
-5.37516807575488
-2.64042860253990
0.0693338440266560
-5.42671899079304
-2.69691027428710
0.0529217382428797
-5.43806120878996
-2.72818228352602
-0.0182797421224010
-5.50919184102603
-2.75424174923765
-0.0192677237837620
-5.50510802198006
-2.79508581370505
-0.0900393568632740
-5.56080690965293
-2.82071164283675
-0.0805918152123937
-5.58128568587129
-2.86111642647325
-0.160922296716830
-5.64154155659876
-2.91629737869085
-0.151028023602397
-5.64157175224740
-2.93125173811726
-0.215906242744667
-5.70137352797274
-2.94097676822432
-0.215554225965838
-5.68594416397987
-2.96546975763242
-0.254969270336074
-5.75028096582309
-2.98472802041213
-0.239148698471346
-5.73938126469713
-3.02874889636869
-0.308089858825602
-5.78824241773190
-3.03752975134381
-0.301790125979377
-5.78686180828379
-3.07606797750019
-0.345246900932739
-5.85523684622048
-3.10436099360321
-0.358457611384542
-5.83836496820635
-3.13240624531402
-0.411419712020263
-5.89124363798149
-3.13520120545966
-0.384130684786088
-5.88387034664192
-3.17274337431299
-0.466588039167204
-5.93624261291408
-3.18003027987692
-0.433789312463071
-5.92335798342612
-3.19705947813678
-0.485732070053167
-5.96521403297917
-3.20382855334419
-0.442413905666132
-5.90180836481183
-3.15533511827761
-0.413832441645795
-5.88313861086082
-3.13657681449407
-0.374985329207604
-5.84920243202573
-3.12755131260510
-0.440870248697624
-5.94499751842049
-3.19825631252206
-0.461484909851962
-5.93052158962882
-3.24868954370550
-0.561827052038559
-6.08577239495573
-3.36884876542424
-0.646894444513726
-6.14074771367294
-3.43373176698956
-0.711684886661020
-6.19544535526022
-3.44333636800773
-0.711196208234723
-6.18986315965062
-3.46266041861620
-0.740426269599988
-6.23899899746236
-3.46670179970929
-0.724372961963167
-6.20785077023446
-3.50045842318787
-0.768034207605213
-6.23141641065904
-3.49392823217682
-0.711407960111685
-6.17969388280296
-3.44210920125343
-0.614492204592129
-5.75268118233689
-2.44999933667101
0.877715042093215
-4.08537633675000
-1.46259667657317
0.415215731120971
-6.28777740556849
-4.25489929121184
-1.37698821851077
-6.47988248057052
-3.62690528316322
-0.913894920197947
-6.39168968599040
-3.59361278752578
-0.815502519928751
-6.32319717873011
-3.61501997213483
-0.891809196492005
-6.37940314855560
-3.60612503775912
-0.882813161678300
-6.34530581830038
-3.62692621829384
-0.903512660471791
-6.40590344405823
-3.65742178096435
-0.898905971244795
-6.38619431537299
-3.68761002650616
-0.943991405948758
-6.41617675542758
-3.65748928935555
-0.918767310293609
-6.40584912123007
-3.67705793783655
-0.953232063937806
-6.44520980378947
-3.69631437432979
-0.917384080657389
-6.40425722829440
-3.66525703545781
-0.946221808522088
-6.43798985428789
-3.65388439225213
-0.889743730071263
-6.35640617583132
-3.62219495031663
-0.877948362472401
-6.34450472167528
-3.55018725000006
-0.795834257689473
-6.26228405541588
-3.50285986655180
-0.738400002639578
-6.18474277565447
-3.40521141027374
-0.650644219345743
-6.09687951615267
-3.34724052668139
-0.632565565093063
-6.08869294598086
-3.34394589664799
-0.609162732570915
-6.12018176966188
-3.42032623654638
-0.745434450018479
-6.28134472731819
-3.54638029839407
-0.866379481366355
-6.36218059480425
-3.70210686998714
-1.00199662636708
-6.50768818384652
-3.76250477503760
-1.05728472073177
-6.53286634216873
-3.81257287329942
-1.11224263625567
-6.59271395361968
-3.82731006068929
-1.08186928094041
-6.55722993830069
-3.83671526941632
-1.12616359911591
-6.60641325267607
-3.85578746809482
-1.09012457155545
-6.57026288968977
-3.84952566185310
-1.12875121558598
-6.60377787888151
-3.85292889245263
-1.10704258520165
-6.58695728648606
-3.86099623838158
-1.13499777115890
-6.60980021553776
-3.85872681496602
-1.12261590108123
-6.59730580597394
-3.87611977446253
-1.15989613955629
-6.63947323471986
-3.88817430614837
-1.14183768822243
-6.62630171578764
-3.90988963641319
-1.18843978586208
-6.68779050035665
-3.92126502884824
-1.15970170847937
-6.64893887685783
-3.93229978431701
-1.20562276938466
-6.68974617105384
-3.95299324104200
-1.19620231926761
-6.68521174610799
-3.97834477467296
-1.24143974626698
-6.72033500265912
-3.96335379835104
-1.21633447603915
-6.71011537888512
-3.99301976278467
-1.26588597182330
-6.73455235056243
-4.00734215629106
-1.24509373449590
-6.71864543112926
-3.99632050487683
-1.27895730262762
-6.75739417173105
-4.00495437227121
-1.25247625253614
-6.72579816127543
-4.00324335997681
-1.28065019832749
-6.75885702647946
-4.00118710732196
-1.25347879194419
-6.72657043190267
-4.00378529149014
-1.28596172319836
-6.77393807998884
-4.02103762755973
-1.25309871980789
-6.74095971110014
-4.01294386853959
-1.29988954742773
-6.77263510354119
-4.00450380538604
-1.25133400967418
-6.74896407358563
-4.04571726703585
-1.29743194814424
-6.76994647549763
-4.03158412042073
-1.26318324243800
-6.74558220154576
-4.03210427047754
-1.29358781016617
-6.77087118201619
-4.00727766016886
-1.25864560696475
-6.73581338521826
-4.01210427047912
-1.29835662649496
-6.76040881748931
-4.01158412042100
-1.24272090044605
-6.72465752319691
-4.00571726703626
-1.27673849853398
-6.77355958472607
-4.00950380538515
-1.25540952848947
-6.72211512247956
-3.99294386853740
-1.26373413604835
-6.74532429485964
-3.99103762756055
-1.23171250493771
-6.69818729824933
-3.96878529148965
-1.22934485685146
-6.68070436699581
-3.87618710732161
-1.10663145142747
-6.56287577337976
-3.84824335997804
-1.09857258622409
-6.54970182758762
-3.82995437227113
-1.09516859667821
-6.60618287767975
-3.86132050487833
-1.15641985607707
-6.63731930954724
-3.92234215629126
-1.20232677551160
-6.73311154687458
-4.02301976278212
-1.30288980383351
-6.79356005109108
-4.02835379835295
-1.27810942760816
-6.74366532131884
-4.02834477467357
-1.28798617105696
-6.76842789431940
-3.99799324104275
-1.25752059600130
-6.72784834443710
-3.99729978431789
-1.27671330180594
-6.74192728353103
-3.97626502884638
-1.20056492530470
-6.66566536091366
-3.92988963641291
-1.18907614073634
-6.64906326327467
-3.82317430614822
-0.797247659669211
-5.82212171460774
-2.62111977446252
0.634919769077500
-4.56484147613333
-2.14372681496758
-0.337574640486256
-6.83722334621022
-4.59099623838184
-1.65973171143377
-6.83926816025362
-3.99792889245158
-1.25155230382915
-6.70097679063788
-3.91952566185363
-1.15803731463806
-6.65735014660584
-3.90578746809405
-1.14918767762429
-6.61838917416695
-3.88671526941712
-1.15000436324955
-6.63909485599210
-3.89731006069023
-1.12548837856920
-6.60946821130730
-3.88757287329906
-1.16064076711602
-6.62951029578405
-3.86250477503882
-1.11546260879518
-6.57922220141928
-3.85210686998562
-1.11495501975285
-6.58860505641777
-3.82638029839268
-1.08411915226672
-6.54766002506983
-3.82532623654657
-1.07795619461034
-6.55138830762220
-3.81894589664975
-1.04146737092925
-6.49479114014428
-3.74724052668184
-1.01465394110100
-6.49786979439833
-3.70021141027578
-0.917517200602725
-6.38062557769066
-3.62785986655109
-0.880058480362636
-6.33305983274120
-3.56018725000093
-0.787279146623398
-6.22517393752334
-3.48219495031619
-0.739180600779374
-6.17196930512214
-3.37388439225039
-0.595764279235876
-6.04344738357433
-3.29025703545909
-0.552031653243033
-6.03460965570813
-3.26131437432833
-0.507984228737320
-6.01545763899063
-3.31705793783522
-0.628623546178567
-6.17099288534637
-3.43248928935436
-0.713951180376014
-6.23621698100001
-3.55261002650511
-0.828968740321349
-6.33113154629598
-3.58242178096343
-0.848677869006525
-6.32573823552363
-3.62192621829593
-0.888080243250047
-6.36503873672935
-3.61112503775847
-0.847177573503759
-6.32903477154442
-3.58501997213720
-0.855971603678196
-6.33772809498038
-3.57361278752541
-0.809464110938421
-6.26612049524951
-3.54690528316298
-0.812656905518468
-6.27921379356299
-3.51489929121174
-0.770551830516379
-6.23700984392974
-3.49259667657321
-0.768150761697817
-6.23951053295743
-3.47999933667119
-0.725455607284639
-6.18671777964414
-3.44710920125374
-0.717468307751365
-6.19863353516362
-3.44892823217726
-0.684190835607369
-6.14525978265708
-3.42045842318702
-0.680625195182724
-6.18159853701497
-3.42170179970857
-0.671773422411270
-6.14765184465101
-3.41766041861417
-0.697637584598744
-6.17342178328711
-3.40833636800872
-0.658219780209711
-6.13391046171190
-3.38873176698925
-0.663522138621651
-6.14412001956598
-3.38884876542406
-0.628546819904373
-6.10905262709074
-3.38368954370546
-0.638296014576674
-6.11871048490336
-3.35825631252216
-0.582771943368279
-6.07309582374967
-3.36255131260534
-0.601976856973452
-6.08221090425886
-3.33657681449444
-0.565913035809905
-6.03605801669627
-3.30033511827667
-0.574582789759409
-6.04963948071797
-3.28382855334771
-0.537988457927403
-6.00795764510422
-3.27205947813756
-0.536132408374280
-6.00601488751478
-3.25003027987496
-0.479017037861452
-5.96881361421956
-3.22774337431404
-0.486644771590666
-5.96135625983694
-3.20520120545798
-0.429018062929445
-5.90364528707248
-3.16740624531247
-0.446139393155681
-5.91068318643669
-3.16436099360323
-0.383011271169740
-5.85247247598482
-3.12106797750035
-0.374636233232265
-5.85401570103139
-3.08252975134411
-0.316016842679582
-5.79031543387755
-3.07374889636913
-0.327155689645463
-5.79637427352322
-3.01972802040982
-0.243055390770643
-5.68719484538788
-2.92046975763312
-0.158718588928786
-5.62277980101614
-2.82097676822372
-0.0391479529208740
-5.48813181779634
-2.81125173811824
-0.104346177196182
-5.57825359865400
-2.80129737869196
-0.0293159815474797
-5.54314787176836
-2.86111642647450
-0.179060110818497
-5.65781739026386
-2.91571164283814
-0.158581334601507
-5.63226493191468
-2.92008581370514
-0.172882446928568
-5.65149329883509
-2.88424174923643
-0.146966265974465
-5.59550531717439
-2.84818228352637
-0.120835633739057
-5.60430383680903
-2.83191027428760
-0.0694934157420675
-5.51289173102519
-2.78042860253909
-0.0329425007023958
-5.49127189620933
-2.73874017230179
0.0438141997693315
-5.41444725152487
-2.62684791025418
0.370773751503696
-4.56242073859784
-1.21475476544304
2.12793319807774
-3.25019532118850
-1.25246370893413
0.295289561155664
-6.06277398487210
-3.41497773349934
-0.372160159198163
-5.60515973670576
-2.78729985328417
0.0255810158190632
-5.36735560490439
-2.56943310348298
0.193510044073455
-5.28436463850294
-2.54138053999459
0.206623862834482
-5.28118990702774
-2.52314523910590
0.244919389101519
-5.20283450015345
-2.46973029712721
0.263393519954115
-5.22430152737355
-2.45113883008286
0.302043132882949
-5.16559411764789
-2.41237397335086
0.320865086133679
-5.16171541906531
-2.40843888131470
0.349856219056488
-5.11766859850483
-2.35933672704192
0.384013352443364
-5.09345684127407
-2.33507070190307
0.433333288889645
-5.01408335077284
-2.26064401525478
0.477812813131744
-4.98455134813537
-2.20605989406198
0.562448692409057
-4.87986407187928
-2.11632158255694
0.632237676812025
-4.82002477754751
-2.06143234187777
0.752176499644245
-4.69003673735709
-1.95639544972371
0.822261877774982
-4.62990323983098
-1.85621419996984
0.947490512005646
-4.49462758945034
-1.75589190233750
1.00285908742226
-4.44921310627999
-1.70543188200402
1.03836427377189
-4.44366312561001
-1.71483747925676
0.979002725814946
-4.51798099759078
-1.79911204911530
0.949771083700608
-4.54217008686411
-1.83825896096643
0.865665973332426
-4.64623377219356
-1.86728159820469
0.881684006736164
-4.58517544609251
-1.84618335784269
0.882821782436351
-4.60899851445785
-1.82496765015581
0.919075885823560
-4.53770639619146
-1.79363789829527
0.940442889534581
-4.52630252282816
-1.76719753792575
0.986919353821836
-4.46979033815299
-1.74065001682986
1.00850182693989
-4.45317329783641
-1.68899879455744
1.08018684551108
-4.38145486903958
-1.62724734201304
1.10697093491822
-4.36963853004710
-1.60539914110845
1.17385060967629
-4.28772776987980
-1.55845768435347
1.18082237382114
-4.30572608791068
-1.56142647449166
1.21788272128711
-4.24363699348552
-1.50930902410326
1.22502813629723
-4.25146400553658
-1.48210885523296
1.27725509374309
-4.18421065219095
-1.44482949898494
1.27956005957634
-4.19188047039659
-1.44247449516011
1.31693949119415
-4.15947700551939
-1.41004739184927
1.30938983782482
-4.15200381096371
-1.39255174504684
1.37690754092575
-4.08946444778487
-1.34999111826954
1.38948903456002
-4.08686248428642
-1.33236908215416
1.43213074580331
-4.03420149564535
-1.29968921407746
1.42982909512270
-4.02648506350353
-1.27195509775234
1.48758049677571
-3.97371677558786
-1.22917032284644
1.50038135920135
-3.99090022531109
-1.22633848457689
1.56822808541687
-3.89803901137707
-1.17346318332762
1.57111707340643
-3.90513673738676
-1.16054802424299
1.60404471652545
-3.85719701144887
-1.12759661684545
1.61200740388252
-3.84922344577197
-1.08461257462095
1.68500152075109
-3.78121965628126
-1.02659951464860
1.70802344895300
-3.75818926221347
-1.00856105717815
1.75606956726026
-3.70513588572207
-0.965500825250195
1.76413625179720
-3.72206315148588
-0.942422444291727
1.83221987642492
-3.63897468629930
-0.879329541721415
1.85031681315475
-3.61087411868757
-0.816225746547514
1.98842343253318
-3.46776507849951
-0.683114688972766
2.04153610404631
-3.39965119651592
-0.630000000000645
2.11465119651512
-3.37153610404566
-0.636885311025643
2.08276507850016
-3.38342343253325
-0.628774253453774
2.12087411868679
-3.40031681315410
-0.710670458278432
1.99397468629923
-3.47221987642571
-0.717577555708123
2.04706315148509
-3.41913625179655
-0.679499174749655
2.06513588572271
-3.41106956726105
-0.651438942823141
2.11318926221339
-3.35302344895235
-0.603400485352683
2.14121965628191
-3.32500152075116
-0.560387425380339
2.20922344577190
-3.25200740388331
-0.507403383155834
2.26219701144808
-3.18404471652481
-0.414451975756856
2.45513673738740
-2.65611707340721
0.608463183326327
3.87803901137628
-1.05822808541622
1.78133848457848
3.90090022531174
-2.71038135920143
-0.920829677153406
1.67871677558707
-3.43758049677506
-0.428044902246065
2.35648506350417
-3.11482909512277
-0.315310785923836
2.45420149564528
-3.02713074580411
-0.287630917844248
2.47686248428706
-2.97448903456081
-0.230008881731750
2.50946444778480
-2.95190754092582
-0.202448254951571
2.56200381096436
-2.89438983782561
-0.159952608152014
2.56947700551860
-2.88693949119279
-0.132525504839734
2.66188047039652
-2.80456005957713
-0.0801705010163519
2.66421065219159
-2.81225509374172
-0.0428911447697697
2.72146400553579
-2.73502813629730
0.00930902410341206
2.74863699348617
-2.73288272128789
0.0564264744903728
2.83072608791061
-2.61082237381978
0.138457684353623
2.88272776987972
-2.57385060967708
0.200399141107165
2.99463853004703
-2.44697093491758
0.312247342013194
3.07145486903879
-2.37018684551187
0.408998794556149
3.20317329783562
-2.22350182693925
0.540650016830013
3.28979033815436
-2.13191935382263
0.607197537924462
3.39130252282738
-2.04544288953394
0.708637898296863
3.42770639619282
-2.04407588582363
0.684967650155959
3.40899851445706
-2.07782178243571
0.621183357844285
3.30517544609316
-2.21668400673624
0.502281598203404
3.22623377219206
-2.24566597333250
0.468258960968019
3.17717008686475
-2.31977108370068
0.429112049112572
3.20298099759215
-2.26400272581502
0.459837479256911
3.18366312561066
-2.27836427377125
0.475431882002736
3.24421310627991
-2.22285908742233
0.520891902339094
3.24462758944955
-2.22249051200500
0.526214199971429
3.30990323983162
-2.15226187777505
0.576395449720977
3.32003673735630
-2.15717649964432
0.606432341879357
3.37002477754815
-2.10223767681281
0.651321582554216
3.38986407187921
-2.09744869240913
0.651059894063572
3.42955134813602
-2.03781281313253
0.710644015253491
3.42908335077277
-2.02833328888900
0.715070701903219
3.48345684127328
-1.99401335244415
0.749336727040637
3.49266859850404
-1.98985621905513
0.743438881314852
3.52171541906523
-1.95586508613447
0.787373973349571
3.51059411764710
-1.96204313288231
0.776138830084450
3.54930152737491
-1.91839351995419
0.834730297127358
3.56783450015409
-1.91491938910087
0.828145239103173
3.60118990702910
-1.85662386283312
0.891380539996177
3.61436463850358
-1.85351004407424
0.884433103481691
3.65235560490360
-1.83058101581914
0.912299853282885
3.66015973670712
-1.81783984080334
0.929977733499488
3.69777398487203
-1.75028956115502
0.982463708934279
3.69519532118914
-1.76793319807853
0.984754765443190
3.73742073859705
-1.72077375150305
1.01184791025721
3.74444725152624
-1.74881419976940
1.00874017229906
3.78127189620782
-1.67705749929768
1.06042860254068
3.77789173102584
-1.68050658425872
1.07191027428630
3.83430383680968
-1.63916436626101
1.11318228352796
3.84050531717431
-1.64303373402560
1.11424174923515
3.88149329883502
-1.58211755307222
1.16008581370816
3.88726493191532
-1.58641866539928
1.15071164283685
3.92781739026379
-1.53093988917942
1.20611642647177
3.93814787176829
-1.55068401845331
1.20629737869212
3.96825359865465
-1.48565382280461
1.26125173811695
3.97313181779555
-1.51085204707920
1.26097676822532
3.99777980101679
-1.44128141107272
1.31046975763040
4.04219484538781
-1.44194460922799
1.30972802041141
4.07637427352387
-1.38284431035532
1.34374889636784
4.06531543387676
-1.40898315731977
1.36252975134282
4.12901570103132
-1.33036376676852
1.41106797750050
4.14247247598475
-1.33698872882961
1.41436099360338
4.19068318643734
-1.25886060684511
1.49740624531262
4.27364528707169
-1.19098193706991
1.57020120545957
4.34135625983902
-1.09335522840941
1.65774337431420
4.39881361421805
-1.11098296213862
1.62003027987655
4.36101488751542
-1.07386759162579
1.65205947813627
4.35295764510415
-1.17201154207195
1.53882855334642
4.26963948071790
-1.20541721023923
1.53033511827683
4.25105801669763
-1.22408696419089
1.52657681449603
4.28721090425807
-1.14802314302590
1.59255131260693
4.30809582374960
-1.16722805663107
1.58825631252231
4.35871048490257
-1.11670398542340
1.64868954370561
4.37905262709139
-1.09645318009570
1.66384876542277
4.44412001956518
-1.01147786137842
1.77873176699084
4.57891046171255
-0.581780219791797
2.65333636800600
5.95842178328704
1.03763758459867
3.86766041861720
5.96765184465237
-0.623226577589520
1.23170179970728
3.85159853701418
-1.26937480481663
1.70045842318573
4.44025978265701
-1.06580916439342
1.72892823217741
4.52863353516355
-0.927531692247273
1.82210920125389
4.52671777964334
-0.939544392714715
1.80499933666990
4.57451053295807
-0.881849238301537
1.85259667657335
4.58700984393182
-0.919448169482258
1.84489929121189
4.61921379356219
-0.847343094481604
1.88190528316170
4.59612049524944
-0.870535889060936
1.88861278752700
4.65272809498031
-0.809028396322594
1.92001997213591
4.64403477154291
-0.827822426494877
1.91112503775862
4.69503873673071
-0.771919756752181
1.98692621829608
4.72573823552283
-0.756322130992831
2.00242178096502
4.77613154629662
-0.666031259678006
2.09261002650526
4.82121698099922
-0.626048819624060
2.15248928935451
4.93099288534701
-0.486376453821507
2.27705793783393
5.02545763898840
-0.427015771262036
2.34631437432992
5.14960965570877
-0.277968346757760
2.48025703545492
5.21344738357426
-0.249235720764198
2.49888439225342
5.26696930512350
-0.215819399219981
2.49219495031490
5.19017393752399
-0.327720853377394
2.36518725000108
5.09305983274185
-0.399941519636719
2.30785986655412
4.98562557769202
-0.512482799397349
2.21021141027305
4.94286979439753
-0.525346058898354
2.19224052668343
4.90979114014492
-0.598532629071538
2.17394589664846
4.91638830762284
-0.532043805389729
2.20532623654816
4.91266002506976
-0.555880847733351
2.19138029839139
4.95360505641770
-0.505044980246506
2.23210686998721
4.95922220141921
-0.519537391205608
2.21250477503753
4.95951029578325
-0.504359232881895
2.24757287329777
4.96946821130722
-0.504511621432311
2.24231006069038
4.99909485599203
-0.469995636749800
2.26171526941727
4.99338917416760
-0.505812322375066
2.24078746809420
4.98735014660577
-0.466962685362019
2.26452566185235
4.98097679063924
-0.503447696170208
2.22292889245317
5.00426816025210
-0.475268288565589
2.24099623838199
4.96722334620942
-0.522425359513818
2.22372681496629
4.96984147613398
-0.489919769079010
2.23111977446411
4.94212171460766
-0.527752340330862
2.21317430614837
4.98406326327460
-0.495923859264456
2.23488963641306
4.97066536091287
-0.534435074695378
2.21126502884941
4.96692728353239
-0.498286698193414
2.22729978431804
4.96284834443559
-0.557479403997335
2.20299324104290
4.95842789432005
-0.492013828943828
2.23334477467228
4.94866532131948
-0.526890572391916
2.21835379835310
4.96856005109101
-0.502110196165850
2.21801976278084
4.96311154687522
-0.532673224489192
2.20734215629141
4.95731930954788
-0.498580143923008
2.23632050487704
4.97118287767896
-0.514831403319710
2.20995437226984
4.97470182758754
-0.476427413776700
2.25324335997819
4.95787577337968
-0.503368548571163
2.22618710732176
5.01070436699502
-0.445655143149329
2.27378529149124
4.98818729824926
-0.493287495063805
2.23103762755782
4.95532429485957
-0.506265863951007
2.25294386853899
4.97211512247876
-0.499590471511321
2.23950380538529
4.99855958472528
-0.453261501466093
2.29071726703497
5.00965752319612
-0.482279099554743
2.26658412042115
5.03040881748996
-0.416643373504394
2.35710427047783
5.09081338521891
-0.386354393035326
2.37227766016757
5.14087118201612
-0.291412189833189
2.43710427047913
5.16058220154784
-0.351816757561351
2.36658412042087
5.11994647549684
-0.342568051854401
2.37571726703600
5.05896407358627
-0.488665990325892
2.22950380538475
4.98263510354040
-0.510110452571622
2.21294386853974
4.93595971110006
-0.551901280191466
2.18103762755700
4.92393807998949
-0.529038276802431
2.21878529148885
4.93157043190187
-0.556521208055883
2.20118710732355
4.94385702647939
-0.519349801671868
2.20824335997840
4.95579816127464
-0.532523747464658
2.21995437227136
4.97739417173098
-0.476042697372453
2.28632050487698
5.09364543112847
-0.0699062655041809
3.16734215629265
6.48455235056307
1.51588597182251
4.16801976278050
6.13011537888576
-0.433665523960920
1.60335379835407
4.28033500265904
-0.948560253733097
1.97334477467167
4.74521174610792
-0.683797680731745
2.14799324104071
4.95474617105376
-0.524377230615413
2.19229978431716
4.90393887685847
-0.595298291519263
2.15626502884695
4.93279050035586
-0.546560214139439
2.18988963641191
4.91130171578756
-0.578162311776924
2.17317430614852
4.91447323472195
-0.560103860443070
2.17611977446268
4.91230580597315
-0.577384098917403
2.16872681496617
4.89480021553769
-0.565002228841171
2.17599623838317
4.90195728648527
-0.587957414799144
2.16292889245277
4.91377787888000
-0.561248784412653
2.17952566185325
4.90526288969041
-0.579875428446781
2.17078746809353
4.92641325267528
-0.538836400884162
2.22171526941790
4.96222993830133
-0.518130719058944
2.24231006068943
5.01271395361960
-0.427757363744402
2.32257287329813
5.07286634216937
-0.407715279267584
2.36250477503919
5.12268818384644
-0.308003373632280
2.44710686998729
5.19718059480490
-0.303620518634439
2.45138029838990
5.20134472731884
-0.249565549981595
2.47032623654797
5.15518176966181
-0.385837267429161
2.32394589664670
5.04369294598079
-0.462434434907732
2.25224052668297
4.93187951615332
-0.579355780654333
2.13521141027389
4.83974277565511
-0.636599997360497
2.09285986655051
4.79728405541509
-0.694165742311321
2.03518725000165
4.78950472167520
-0.697051637528396
2.03219495031678
4.75140617583196
-0.755256269929532
1.98888439225371
4.75298985428710
-0.708778191477989
2.01025703545652
4.73925722829432
-0.762615919342685
1.97131437432994
4.71020980378940
-0.716767936062269
2.00705793783526
4.72584912122927
-0.756232689704308
1.96748928935426
4.72117675542751
-0.771008594052757
1.98261002650343
4.70119431537291
-0.771094028754562
1.95242178096450
4.70090344405887
-0.781487339527564
1.95192621829398
4.67030581830031
-0.827186838321775
1.90112503775783
4.65440314855696
-0.818190803507351
1.89501997213642
4.59319717873003
-0.884497480070604
1.83861278752593
4.58168968599104
-0.896105079802128
1.83690528315906
4.54988248056972
-0.943011781490023
1.79489929121342
4.54777740556842
-0.925215731121047
1.80259667657332
4.51037633674993
-0.977715042094009
1.74999933667116
4.50768118233609
-0.970507795407946
1.75210920125646
4.47469388280433
-1.00859203988839
1.70392823217840
4.46141641065752
-1.00696579239558
1.73545842318802
4.43785077023511
-1.05062703803763
1.68670179970800
4.43399899746300
-1.04457373040009
1.69266041861634
4.41486315965054
-1.08380379176463
1.65333636800644
4.38544535526086
-1.06831511333978
1.66873176699259
4.37574771367359
-1.11810555548635
1.62384876542295
4.35077239495566
-1.10817294795936
1.63368954370421
4.34552158962874
-1.15851509014883
1.57325631251933
4.30999751842042
-1.14412975130101
1.59755131260525
4.30920243202494
-1.17001467079319
1.56157681449278
4.33313861086074
-1.13616755835572
1.63033511827488
4.37680836481175
-1.09758609433322
1.63882855334578
4.41021403297981
-1.01926792994763
1.72205947813693
4.40835798342532
-1.12621068753701
1.59503027987563
4.34124261291328
-1.13341196083359
1.58774337431458
4.26387034664185
-1.29586931521327
1.42020120545837
4.16624363798213
-1.31858028797982
1.40240624531273
4.11836496820627
-1.39154238861481
1.34936099360479
4.09523684622256
-1.37975309906662
1.35106797750034
4.07186180828300
-1.41320987402070
1.31752975134396
4.06324241773254
-1.39691014117447
1.34374889636741
4.05938126469633
-1.43085130152801
1.31472802041227
4.07028096582302
-1.37003072966328
1.37546975762969
4.18094416398051
-1.00944577403496
2.23097676822591
5.49137352797338
0.525906242744590
3.34625173811597
5.46157175224733
-1.11897197639696
0.711297378692430
3.24654155659797
-1.94407770328397
1.02611642647339
3.82628568587121
-1.64440818478768
1.13571164283690
3.93080690965214
-1.54996064313680
1.17008581370664
3.86510802197998
-1.62073227621775
1.10924174923492
3.87419184102595
-1.60172025787767
1.13318228352904
3.83806120879133
-1.67292173824296
1.07691027428581
3.79671899079297
-1.66433384402601
1.08542860253861
3.79516807575480
-1.71595367884325
1.01374017230117
3.77341137528242
-1.70777832352547
1.02684791025486
3.74645182354813
-1.74980483645388
0.974754765442146
3.73429237697344
-1.72203025386243
1.01746370893454
3.73193601389774
-1.74945159017876
0.984977733498170
3.74938573424875
-1.71706583834576
1.02229985328287
3.78164455923375
-1.70486997014706
1.04943310348298
3.82371553097799
-1.62286093654916
1.14638053999589
3.89060171221703
-1.59603566802285
1.16314523910419
3.93730618595078
-1.51939107489852
1.24473029712967
3.97383205509682
-1.50292404767762
1.20113883008519
3.94018244216877
-1.55663145740393
1.15237397335018
3.82136048891667
-1.74051015598645
0.938438881315320
3.62236935599680
-1.88955697654758
0.814336727042409
3.49321222260640
-2.01876873377755
0.690070701904852
3.42389228616235
-2.04814222427943
0.680644015252119
3.36441276192032
-2.14267422691611
0.596059894063489
3.34477688264379
-2.13736150317214
0.591321582554008
3.30998789823945
-2.20720079750456
0.536432341879006
3.28004907540802
-2.19718883769563
0.526395449721933
3.24496369727735
-2.24232233521879
0.471214199969370
3.23473506304675
-2.23259798560080
0.500891902338329
3.20436648762949
-2.29301246877253
0.435431882004721
3.17886130128064
-2.28356244944172
0.444837479258755
3.15822284923622
-2.34424457746016
0.364112049112846
3.11245449135063
-2.35005548818676
0.378258960968155
3.07655960171959
-2.42599180285939
0.297281598204844
3.05054156831449
-2.43205012895822
0.276183357842710
2.99940379261508
-2.50322706059497
0.209967650157120
2.94314968922795
-2.52951917885914
0.198637898296450
2.91178268551771
-2.58592305222308
0.137197537923916
2.87030622122837
-2.58243523689818
0.145650016829327
2.83872374811326
-2.64905227721542
0.0639987945567678
2.80203872953925
-2.67077070601146
0.0422473420136736
2.75525464013435
-2.74258704500459
-0.00960085889536155
2.72837496537490
-2.74949780517183
-0.0115423156447294
2.70140320123228
-2.81149948714016
-0.0785735255081183
2.66434285376495
-2.80358858156597
-0.0906909758966506
2.63219743875416
-2.86576156951556
-0.142891144767095
2.59497048130982
-2.88301492285969
-0.150170501013814
2.57766551547376
-2.92534510465470
-0.217525504838768
2.52528608385817
-2.93774856953326
-0.234952608151181
2.50783573722685
-3.00022176408744
-0.282448254950883
2.46031803412600
-2.99776112726692
-0.275008881732628
2.44773654049107
-3.05536309076531
-0.347630917845270
2.40509482924856
-3.05802407940704
-0.345310785923551
2.38239647992853
-3.11574051154663
-0.388044902248796
2.34464507827631
-3.13350879946439
-0.385829677153395
2.33684421585073
-3.17132534973964
-0.453661515423085
2.28899748963456
-3.18918656367505
-0.461536816673932
2.26110850164435
-3.23708883766384
-0.504451975758694
2.24318085852827
-3.20502856360238
-0.467403383153500
2.28521817116768
-3.18800212927993
-0.465387425379569
2.29222405429990
-3.15100591877057
-0.403400485353493
2.30420212609878
-3.22903631283974
-0.531438942821206
2.20615600779086
-3.28708968932819
-0.534499174749299
2.16808932325543
-3.38016242356791
-0.687577555707901
2.03500569862562
-3.45825088875226
-0.755670458276908
1.93190876189802
-3.56635145636392
-0.828774253452389
1.90380214251750
-3.56946049655119
-0.841885311027270
1.87568947100660
-3.62257437853616
-0.900000000000966
1.85757437853569
-3.60568947100563
-0.878114688971790
1.83946049655216
-3.67880214251797
-0.921225746549547
1.82635145636489
-3.62690876189705
-0.874329541722152
1.90325088875323
-3.41000569862610
-0.262422444294030
3.02516242356600
-1.86808932325446
1.19949917475023
3.61708968932771
-2.91115600779134
-1.32356105717786
0.949036312839263
-4.23920212609925
-1.16659951464844
1.62600591877010
-3.92222405430037
-1.17461257461949
1.61800212927946
-3.82021817116959
-1.11259661684556
1.59002856360334
-3.90318085852731
-1.19054802424037
1.54208883766337
-3.91610850164483
-1.18846318332800
1.54418656367457
-3.98399748963503
-1.25633848457885
1.47632534974061
-3.97184421585120
-1.24417032284566
1.47350879946392
-4.01964507827534
-1.30195509775314
1.43574051154759
-4.02239647993044
-1.29968921407839
1.41802407940656
-4.07509482924760
-1.35736908215379
1.40036309076628
-4.05773654049010
-1.32499111826931
1.38276112726645
-4.08531803412503
-1.35755174504818
1.40022176408840
-4.05783573722589
-1.30504739184788
1.42774856953279
-4.06528608385721
-1.29747449516029
1.47534510465422
-3.98266551547424
-1.21982949898525
1.55301492285921
-3.91997048131030
-1.15710885523197
1.61076156951508
-3.83219743875464
-1.06430902410241
1.68358858156549
-3.82434285376398
-1.10142647449095
1.62149948713968
-3.86640320123132
-1.17345768435433
1.48949780517279
-4.07337496537538
-1.38539914110657
1.31758704500411
-4.21525464013338
-1.51724734201274
1.16577070601243
-4.34703872954117
-1.65899879455870
1.06905227721638
-4.41872374811229
-1.69065001682839
1.02743523689771
-4.46530622122885
-1.73719753792585
0.995923052224042
-4.47178268551819
-1.76363789829551
0.954519178860105
-4.54314968922842
-1.84996765015618
0.918227060594500
-4.54440379261412
-1.82118335784464
0.892050128959181
-4.59054156831640
-1.86728159820678
0.865991802858920
-4.59655960171863
-1.88325896096721
0.850055488187721
-4.63745449135110
-1.91911204911191
0.814244577459681
-4.66822284923669
-1.93483747925782
0.783562449441240
-4.70886130127968
-1.99543188200378
0.738012468772048
-4.73936648762997
-2.01089190233739
0.702597985600324
-4.79473506304579
-2.08621419997130
0.657322335219755
-4.81996369727783
-2.09639544972387
0.612188837695152
-4.89504907540705
-2.16143234187807
0.567200797504087
-4.90498789823993
-2.16632158255594
0.557361503171657
-4.95477688264282
-2.23605989406255
0.507674226917076
-4.96941276191935
-2.23564401525405
0.478142224278952
-5.04889228616138
-2.31507070190392
0.433768733778515
-5.03321222260832
-2.30933672704434
0.424556976547103
-5.08736935599584
-2.37843888131438
0.365510155985977
-5.10636048891714
-2.38737397335211
0.351631457404896
-5.16018244216924
-2.42613883008425
0.312924047677145
-5.16383205509729
-2.42473029712586
0.289391074898041
-5.21730618594982
-2.48314523910325
0.241035668022374
-5.21560171221894
-2.49138053999495
0.207860936548685
-5.27371553097846
-2.54943310348204
0.189869970148025
-5.27164455923279
-2.54729985328193
0.167065838345285
-5.33438573424923
-2.60497773350011
0.129451590179725
-5.32693601389677
-2.57746370893072
0.127030253863394
-5.36429237697391
-2.64975476544408
0.0848048364534013
-5.38145182354716
-2.64184791025680
0.0777783235264398
-5.42341137528290
-2.69874017230310
0.0409536788427700
-5.43016807575528
-2.69542860254055
0.0193338440255388
-5.49171899079344
-2.74191027428487
-0.0220782617560782
-5.46806120879036
-2.74318228352810
-0.0232797421228006
-5.54419184102498
-2.81924174923686
-0.0692677237827204
-5.52510802198046
-2.80008581370282
-0.0650393568622323
-5.56080690965261
-2.84071164283884
-0.0855918152127924
-5.54628568587025
-2.78111642647245
-0.0559222967165107
-5.52154155659988
-2.80629737869437
-0.0460280236020729
-5.48657175224780
-2.71125173811503
0.0140937572563740
-5.51137352797242
-2.82097676822209
-0.0905542259655192
-5.55594416397954
-2.80046975763163
-0.119969270337192
-5.66028096582350
-2.95972802041421
-0.259148698471025
-5.73938126469681
-3.00874889636647
-0.318089858824560
-5.82324241773158
-3.10252975134302
-0.346790125981214
-5.81186180828203
-3.08106797750228
-0.355246900932418
-5.86523684622159
-3.12936099360385
-0.383457611384220
-5.83336496820675
-3.11240624531179
-0.391419712019219
-5.87624363798117
-3.15020120545744
-0.389130684787207
-5.85887034664088
-3.09774337431651
-0.361588039166884
-5.82124261291375
-2.87003027987469
0.311210687536531
-4.64335798342579
-1.32205947813599
1.66426792994571
-4.31521403297885
-2.66882855334771
-0.917413905665811
-6.70180836481223
-3.74533511827681
-0.753832441644754
-6.18313861086122
-3.40157681449184
-0.584985329205841
-5.99420243202541
-3.25755131260719
-0.545870248699464
-6.04999751841945
-3.31825631252127
-0.576484909851641
-6.03552158962922
-3.28868954370614
-0.586827052039678
-6.06577239495613
-3.34384876542201
-0.611894444512684
-6.08574771367262
-3.34373176698877
-0.621684886660701
-6.12044535525989
-3.39833636800838
-0.661196208235841
-6.13486315965102
-3.36766041861828
-0.645426269598948
-6.14399899746204
-3.42170179970706
-0.669372961961407
-6.13285077023414
-3.36045842318708
-0.638034207606330
-6.14141641065656
-3.38892823218034
-0.636407960112084
-6.10469388280480
-3.35210920125264
-0.609492204591087
-6.08268118233657
-3.33499933667022
-0.572284957907903
-6.01037633674896
-3.27259667657238
-0.504784268879428
-5.98777740557033
-3.21989929121536
-0.446988218510450
-5.86988248057019
-3.10690528316099
-0.368894920198345
-5.84668968599008
-3.10861278752499
-0.360502519929869
-5.84319717872907
-3.15001997213835
-0.466809196491683
-5.99440314855600
-3.31112503775976
-0.622813161677260
-6.11530581830078
-3.41192621829304
-0.728512660471468
-6.25590344405935
-3.52742178096356
-0.798905971245913
-6.28119431537194
-3.54761002650537
-0.818991405947716
-6.32617675542798
-3.61748928935620
-0.863767310294727
-6.34084912122975
-3.59705793783432
-0.863232063936764
-6.37020980378843
-3.63631437432900
-0.917384080656347
-6.36925722829336
-3.61525703545845
-0.871221808522486
-6.38298985428757
-3.64888439224990
-0.904743730069500
-6.37140617583100
-3.63219495031584
-0.907948362473517
-6.40450472167424
-3.67018725000071
-0.900834257690589
-6.36728405541556
-3.62285986655244
-0.913400002639976
-6.40474277565559
-3.68021141027295
-0.930644219344701
-6.40687951615235
-3.67224052668203
-0.942565565094179
-6.43869294597982
-3.69894589664863
-0.959162732571313
-6.43518176966372
-3.70032623654990
-0.975434450017437
-6.49134472731787
-3.76138029839184
-1.00137948136603
-6.46718059480393
-3.75710686998635
-1.01699662636819
-6.52768818384548
-3.78250477503825
-1.03728472073289
-6.51286634216984
-3.76757287330006
-1.03724263625463
-6.54771395362008
-3.82231006068850
-1.06686928094009
-6.53722993830180
-3.77671526941696
-1.04616359911631
-6.54641325267431
-3.82578746809546
-1.08012457155369
-6.54526288968945
-3.79452566185231
-1.07875121558638
-6.59377787888047
-3.85292889245183
-1.11204258520277
-6.56695728648430
-3.82099623838223
-1.10999777115786
-6.60480021553816
-3.85872681496810
-1.12261590108163
-6.57730580597362
-3.85111977446174
-1.11489613955596
-6.60447323472098
-3.88317430614758
-1.13683768822355
-6.59130171578660
-3.83488963641384
-1.11343978586247
-6.61279050035633
-3.89126502884889
-1.13970170847977
-6.62893887685894
-3.87729978431622
-1.12062276938362
-6.59974617105280
-3.88299324104265
-1.14620231926873
-6.60521174610695
-3.84834477467361
-1.11143974626737
-6.59533500266095
-3.83835379835600
-1.06633447603811
-6.49511537888480
-3.74301976277956
-1.02088597182298
-6.47955235056211
-3.71234215629171
-0.950093734496292
-6.43364543112894
-3.72632050487891
-1.01395730262802
-6.50739417173145
-3.77495437226754
-1.05747625253438
-6.58079816127511
-3.86824335997746
-1.16065019832860
-6.66385702647986
-3.94618710732260
-1.21347879194459
-6.66157043190378
-3.92878529149078
-1.18096172319660
-6.69393807998852
-3.94603762755894
-1.20809871980757
-6.67095971109909
-3.91794386853880
-1.17988954742885
-6.68263510353943
-3.94450380538381
-1.19133400967458
-6.65396407358675
-3.89571726703793
-1.15243194814463
-6.62994647549731
-3.89658412041993
-1.12818324243768
-6.52558220154687
-3.49710427047819
-0.288587810167281
-5.22587118201515
-1.94727766016951
1.01135439303486
-4.89081338521794
-3.14210427047976
-1.46835662649464
-7.39540881749043
-4.47158412042020
-1.41272090044429
-6.78465752319515
-4.02071726703691
-1.24173849853438
-6.65855958472431
-3.89950380538723
-1.16540952848915
-6.64211512248067
-3.88294386853804
-1.14873413604803
-6.65032429486004
-3.91603762755688
-1.17171250493810
-6.62818729824829
-3.87378529149030
-1.16434485685114
-6.64070436699693
-3.91618710732369
-1.15163145142787
-6.62787577338015
-3.86824335997437
-1.12857258622233
-6.61470182758658
-3.89995437227178
-1.13016859667932
-6.59118287767943
-3.83632050487897
-1.11141985607746
-6.59731930954836
-3.86234215629334
-1.09232677550984
-6.56311154687569
-3.79801976277989
-1.03288980383318
-6.52356005109004
-3.77835379835216
-1.02310942760856
-6.46866532131852
-3.67834477467134
-0.927986171056641
-6.38342789432052
-3.63299324104483
-0.862520596001699
-6.27284834443606
-3.49729978431710
-0.721713301805619
-6.17192728353142
-3.42126502884847
-0.655564925305093
-6.09066536091478
-3.32988963641499
-0.579076140736015
-6.07906326327363
-3.36817430614743
-0.652247659668170
-6.15212171460813
-3.43111977446317
-0.755080230922897
-6.29484147613301
-3.61872681496535
-0.912574640486652
-6.42222334621133
-3.68099623838392
-0.959731711433444
-6.45926816025401
-3.74292889245223
-1.00155230382883
-6.47597679063828
-3.71952566185140
-1.00803731463845
-6.49735014660480
-3.76078746809613
-1.01418767762397
-6.47838917416807
-3.73171526941920
-1.00000436324923
-6.48409485599250
-3.74731006068656
-1.00548837856672
-6.45446821130626
-3.69757287329971
-0.965640767117138
-6.45951029578372
-3.71250477503946
-0.960462608794861
-6.41922220141968
-3.67210686998626
-0.914955019752527
-6.40360505641817
-3.68138029839044
-0.944119152265682
-6.38766002506879
-3.62532623654721
-0.892956194610741
-6.40638830762331
-3.67894589664751
-0.911467370928933
-6.37479114014539
-3.62224052667961
-0.904653941100678
-6.40786979439657
-3.67021141027498
-0.917517200603121
-6.38562557769105
-3.63285986655317
-0.905058480363749
-6.39805983274232
-3.68018725000301
-0.927279146623077
-6.37517393752446
-3.63719495031396
-0.889180600779051
-6.38196930512253
-3.64888439225247
-0.915764279236271
-6.38344738357329
-3.61025703545685
-0.882031653242710
-6.36460965570924
-3.64131437433185
-0.897984228736996
-6.36045763899031
-3.60205793783586
-0.868623546177527
-6.35599288534604
-3.62248928935357
-0.863951180376410
-6.34621698099825
-3.56761002650719
-0.833968740321028
-6.33113154629710
-3.60242178096696
-0.858677869006203
-6.30573823552330
-3.55192621829226
-0.818080243246852
-6.30503873672974
-3.58112503775768
-0.837177573505592
-6.26903477154482
-3.52001997213784
-0.785971603677873
-6.27272809498078
-3.54361278752318
-0.794464110938097
-6.24112049524991
-3.48690528316075
-0.747656905520301
-6.23421379356123
-3.51989929121382
-0.765551830516774
-6.20700984393085
-3.46259667657241
-0.733150761697496
-6.20951053295854
-3.46499933666895
-0.720455607284317
-6.17171777964238
-3.41710920125582
-0.677468307753195
-6.16363353516258
-3.43392823217935
-0.679190835607047
-6.14025978265748
-3.38545842318766
-0.655625195183837
-6.12659853701465
-3.39170179970633
-0.641773422409515
-6.10265184465140
-3.33766041861626
-0.602637584599139
-6.10342178328607
-3.36833636800793
-0.613219780208670
-6.04891046171302
-3.30373176699278
-0.543522138620611
-6.04412001956565
-3.31884876542471
-0.578546819903332
-6.00905262709042
-3.26368954370466
-0.508296014577067
-6.01371048490447
-3.26325631252424
-0.522771943369392
-5.98809582375006
-3.20755131260310
-0.471976856973131
-5.95221090425854
-3.22157681449221
-0.480913035809583
-5.92105801669666
-3.16033511827588
-0.414582789761240
-5.90463948071837
-3.14382855334836
-0.377988457927081
-5.78795764510462
-3.04705947813533
-0.271132408373238
-5.75601488751445
-2.99003027987560
-0.219017037863283
-5.68881361421708
-2.97274337431613
-0.216644771589626
-5.73135625983805
-2.99520120545862
-0.244018062929124
-5.72864528707216
-2.97740624531168
-0.286139393155360
-5.81068318643637
-3.09436099360243
-0.348011271170851
-5.79747247598378
-3.04606797750244
-0.319636233231944
-5.80401570103179
-3.06752975134476
-0.306016842680695
-5.76531543387722
-2.98374889636689
-0.237155689643708
-5.75637427352290
-2.99472802041334
-0.243055390771040
-5.69219484538828
-2.93546975763233
-0.183718588927743
-5.65777980101725
-2.90597676822149
-0.119147952919835
-5.55313181779602
-2.64625173811600
0.435653822802704
-4.55825359865368
-1.32129737869117
1.92068401845284
-3.48814787176876
-1.42611642647370
0.170939889180386
-6.15781739026426
-3.45571164283590
-0.333581334599749
-5.57726493191436
-2.82008581370434
-0.0778824469282444
-5.52149329883405
-2.76924174923708
-0.0369662659748595
-5.50050531717478
-2.73818228352990
0.00416436626198147
-5.46430383680871
-2.71691027428536
0.000506584259692300
-5.42289173102487
-2.66542860253974
0.0820574992957730
-5.40127189620685
-2.67374017230387
0.0788141997689360
-5.38944725152670
-2.63184791025627
0.130773751504020
-5.37242073859752
-2.63975476544224
0.132933198078056
-5.31519532118817
-2.54746370893333
0.200289561154550
-5.27777398487393
-2.53497773350142
0.207839840802877
-5.22515973670615
-2.45729985328194
0.310581015818666
-5.16735560490406
-2.39443310348075
0.373510044072345
-5.04936463850262
-2.27138053999811
0.506623862834088
-4.96118990702813
-2.20314523910511
0.574919389102562
-4.84783450015456
-2.04973029712641
0.728393519954437
-4.72930152737466
-1.98113883008350
0.777043132881838
-4.63059411764614
-1.84737397335007
0.905865086134722
-4.58171541906570
-1.86843888131678
0.844856219055374
-4.64266859850378
-1.90933672703969
0.794013352445121
-4.74845684127303
-2.05507070190371
0.668333288889969
-4.82908335077180
-2.08564401525542
0.642812813131346
-4.86955134813577
-2.14105989406550
0.592448692410097
-4.86986407187896
-2.10632158255470
0.632237676813779
-4.85002477754718
-2.10643234187841
0.642176499643133
-4.82503673735676
-2.05139544972291
0.707261877774587
-4.77990323983281
-2.07121419996904
0.697490512005970
-4.75462758945002
-1.99589190233671
0.747859087421146
-4.72921310627895
-1.99543188200467
0.763364273770778
-4.68866312561184
-1.92983747926028
0.824002725815986
-4.66298099759118
-1.91911204911306
0.829771083700927
-4.64717008686379
-1.87325896096707
0.870665973331312
-4.62123377219181
-1.88728159820534
0.846684006735772
-4.61017544609363
-1.83118335784478
0.897821782437392
-4.58399851445753
-1.83496765015501
0.889075885823882
-4.56270639619257
-1.80363789829591
0.940442889533470
-4.55630252282641
-1.79719753792496
0.946919353823596
-4.50979033815339
-1.76065001683194
0.988501826939497
-4.48817329783537
-1.75399879455520
0.995186845512845
-4.45645486903854
-1.68224734201369
1.06197093491855
-4.43963853004893
-1.69039914110910
1.05885060967590
-4.40272776987947
-1.64845768435267
1.10582237382075
-4.37572608791179
-1.65642647449086
1.11288272128600
-4.35363699348520
-1.59430902410391
1.17002813629612
-4.31146400553625
-1.59210885523217
1.17225509374269
-4.27421065219278
-1.50482949898413
1.22956005957809
-4.27688047039555
-1.52247449516076
1.21693949119304
-4.23447700551763
-1.45504739184992
1.26438983782515
-4.20200381096555
-1.46755174505180
1.28190754092679
-4.16946444778527
-1.38999111826587
1.34448903456106
-4.12186248428610
-1.37236908215480
1.38213074580292
-4.07420149564502
-1.30968921407810
1.42982909512231
-4.08648506350464
-1.33195509775443
1.41258049677675
-4.02371677558753
-1.26417032284565
1.50538135920024
-3.98590022531149
-1.25633848457754
1.47322808541576
-3.97803901137818
-1.19846318332826
1.56111707340818
-3.92513673738715
-1.17054802424220
1.56904471652506
-3.85719701144783
-1.07759661684321
1.68700740388213
-3.77422344577237
-1.01961257461871
1.75000152075069
-3.67121965628237
-0.861599514649247
1.88302344895260
-3.64318926221243
-0.938561057177351
1.79606956726130
-3.63013588572318
-0.885500825250837
1.82913625179609
-3.69206315148412
-0.997422444293810
1.74221987642524
-3.71897468629897
-0.969329541723501
1.78031681315507
-3.72587411868797
-0.981225746546718
1.76342343253493
-3.66776507849847
-0.903114688973411
1.84153610404519
-3.64465119651416
-0.905000000001291
1.83965119651545
-3.59653610404677
-0.821885311029164
1.93276507849976
-3.54842343253364
-0.803774253450100
1.95087411868639
-3.47531681315378
-0.695670458279075
2.09397468629883
-3.15721987642682
0.0224224442912344
3.30206315148541
-1.58913625179766
1.39550082525402
3.58013588572447
-2.95106956726001
-1.16643894282234
1.34818926221228
-3.88802344895275
-0.888400485353329
1.97621965628080
-3.45000152075227
-0.650387425380985
2.12922344577366
-3.30700740388371
-0.572403383153597
2.18719701144912
-3.29404471652377
-0.559451975757501
2.20013673738701
-3.24611707340690
-0.476536816671437
2.26803901137660
-3.21322808541733
-0.483661515425046
2.27590022531134
-3.17538135920038
-0.420829677154049
2.30871677558882
-3.15258049677546
-0.413044902248149
2.33148506350306
-3.11982909512102
-0.370310785924478
2.39920149564488
-3.08213074580307
-0.332630917847772
2.41686248428739
-3.02948903456121
-0.260008881730951
2.49446444778369
-2.98190754092549
-0.247448254950776
2.50700381096397
-2.90938983782673
-0.124952608152659
2.63447700551892
-2.81693949119462
-0.0625255048389388
2.70688047039684
-2.71956005957681
0.0798294989873225
2.86421065219120
-2.61225509374140
0.147108855229585
2.93146400553468
-2.51002813629770
0.284309024101332
3.04863699348649
-2.39788272128757
0.351426474494047
3.07572608791308
-2.39082237381946
0.363457684352980
3.08272776987933
-2.43385060967461
0.255399141109402
2.96463853004592
-2.51697093492012
0.202247342013986
2.92645486903984
-2.57018684551155
0.133998794558388
2.86817329783666
-2.59850182693821
0.160650016829367
2.88979033815325
-2.60191935382087
0.117197537922376
2.86630252282913
-2.56544288953361
0.203637898296217
2.94770639619098
-2.54407588582402
0.204967650158195
2.92399851445595
-2.52282178243611
0.256183357842205
3.00017544609205
-2.46668400673735
0.267281598202758
2.99623377219309
-2.45066597333146
0.333258960967376
3.09217008686364
-2.39477108370251
0.349112049116251
3.09298099758960
-2.36400272581469
0.414837479257704
3.17866312561026
-2.31336427377236
0.405431882002091
3.16421310628023
-2.29285908742273
0.465891902337011
3.20962758945274
-2.26749051200325
0.466214199969343
3.19990323983123
-2.24726187777473
0.501395449723213
3.25503673735518
-2.23717649964471
0.496432341875835
3.25002477754847
-2.20723767681249
0.551321582557891
3.31486407188168
-2.19244869240737
0.541059894060046
3.28455134813562
-2.17281281313293
0.600644015255729
3.35408335077166
-2.14333328889155
0.575070701904012
3.35845684127432
-2.10401335244383
0.649336727042870
3.38766859850221
-2.06485621905408
0.653438881314207
3.38171541906555
-2.08086508613486
0.692373973347488
3.46059411764886
-2.03204313288198
0.711138830083808
3.44930152737308
-1.99839351995458
0.774730297129593
3.53283450015298
-1.95991938910127
0.763145239102530
3.50618990702799
-1.94662386283423
0.821380539992652
3.57436463850391
-1.92851004407249
0.809433103481046
3.55735560490392
-1.89058101582025
0.892299853285124
3.63015973670457
-1.85783984080159
0.879977733498842
3.62277398487236
-1.83028956115613
0.947463708930756
3.70019532118946
-1.77293319807820
0.959754765442546
3.71242073860025
-1.68577375150130
1.09184791025369
3.86444725152512
-1.61381419976908
1.12374017230130
3.89627189620814
-1.53205749929735
1.21542860253716
3.94789173102616
-1.57550658425840
1.16691027428854
3.92430383680857
-1.54416436625926
1.18318228352444
3.89050531717464
-1.63303373402672
1.07424174923738
3.82649329883391
-1.63211755307334
1.11508581370753
3.87226493191564
-1.62141866539896
1.11071164283908
3.83781739026268
-1.58593988917910
1.16111642647113
3.90814787176861
-1.56068401845299
1.18129737868859
3.91825359865641
-1.53065382280572
1.23125173812206
3.99313181779587
-1.49585204707888
1.23597676822467
4.00277980101567
-1.44128141107097
1.35046975762975
4.10219484538813
-1.33694460922911
1.63972802040788
4.79137427352419
-0.167844310353567
3.12874889636719
6.25531543387708
0.531016842679114
2.41252975134506
4.06401570103021
-2.05036376676677
0.731067977499859
3.77747247598507
-1.52198872883073
1.24936099359986
4.05068318643766
-1.32886060684479
1.46740624531198
4.21864528707201
-1.28098193707102
1.44520120546180
4.18635625983647
-1.24835522841195
1.51274337431355
4.26381361421837
-1.23598296213830
1.51003027987878
4.25601488751574
-1.20386759162547
1.55205947813851
4.31795764510447
-1.17201154207019
1.55882855334290
4.30963948071822
-1.14041721024034
1.62033511827618
4.35605801669652
-1.12408696419200
1.61657681449539
4.35221090425983
-1.08802314302558
1.68255131260628
4.43809582374848
-1.04722805662932
1.69825631251879
4.44871048490433
-0.996703985423081
1.78868954370784
4.52905262709027
-0.921453180096812
1.82884876542789
4.56912001956551
-0.861477861378099
1.91873176699020
4.69391046171143
-0.766780219790040
1.99333636800535
4.77342178328736
-0.667362415401005
2.14766041861080
4.91265184465269
-0.543226577587760
2.20170179970664
4.95159853701450
-0.499374804817745
2.24545842318796
4.99025978265590
-0.520809164394535
2.20892823217677
4.89363353516387
-0.597531692248385
2.11710920125613
4.81671777964510
-0.699544392714396
1.99999933666925
4.70451053295839
-0.786849238302652
1.97759667657559
4.69700984392927
-0.794448169484807
1.92989929121124
4.64921379356252
-0.822343094481282
1.94690528316393
4.68112049525119
-0.800535889060612
1.94861278752635
4.67772809498063
-0.769028396319402
1.99001997213239
4.73403477154467
-0.752822426495991
1.98612503775798
4.71503873672960
-0.731919756751858
2.03692621829544
4.77573823552459
-0.706322130992509
2.04242178096150
4.77613154629551
-0.686031259676247
2.07761002650461
4.81621698100098
-0.646048819622300
2.06748928935674
4.81599288534590
-0.636376453821183
2.11205793783904
4.85045763898873
-0.632015771263152
2.09131437432927
4.82460965570910
-0.637968346758874
2.09025703545428
4.83844738357314
-0.639235720763875
2.07388439224990
4.81196930512382
-0.645819399218224
2.12719495031714
4.86517393752144
-0.632720853375633
2.09518725000331
4.84305983274073
-0.619941519636395
2.13785986655060
4.89062557769234
-0.602482799398465
2.12021141027528
4.85286979440073
-0.600346058898034
2.15224052667991
4.88979114014381
-0.598532629071216
2.14394589664782
4.87138830762029
-0.602043805390844
2.17032623654751
4.90266002507008
-0.570880847733029
2.14638029839650
4.88860505641946
-0.570044980244745
2.20210686998656
4.93422220141953
-0.559537391203850
2.16750477503401
4.89951029578358
-0.554359232885884
2.19257287330288
4.93446821130611
-0.544511621431988
2.17731006068974
4.89909485598948
-0.564995636749478
2.20671526941375
4.95338917416648
-0.545812322376182
2.18078746809355
4.93235014660753
-0.531962685360259
2.22452566185458
4.97097679063813
-0.523447696172760
2.20792889245540
4.94926816025243
-0.520268288566704
2.25599623838135
4.96722334621119
-0.497425359514933
2.22872681496277
4.96484147613286
-0.519919769077250
2.24111977446059
4.99212171460655
-0.482752340331977
2.25317430615348
4.97906326327204
-0.495923859262696
2.27988963641529
5.01566536091319
-0.469435074695054
2.26126502884589
5.00192728353271
-0.463286698194530
2.28229978431740
5.05284834444023
-0.432479403997013
2.30299324103938
5.02842789431893
-0.402013828943506
2.40334477467164
5.16366532131693
-0.301890572393031
2.42335379835246
5.17856005109133
-0.282110196165527
2.45301976278594
5.18311154687411
-0.307673224485994
2.39734215629077
5.11231930954821
-0.353580143924123
2.39132050487927
5.10118287767928
-0.419831403323700
2.28495437227495
4.98970182758930
-0.471427413776377
2.26324335997755
5.00787577337713
-0.483368548570840
2.25618710731824
4.98570436699534
-0.465655143149007
2.28878529148772
5.02818729825102
-0.463287495060607
2.27103762756005
5.00532429485989
-0.456265863950684
2.29294386854122
5.05211512247909
-0.419590471510998
2.30450380538465
5.05855958472704
-0.403261501467209
2.41571726703145
5.31965752319644
0.242720900447017
3.47158412041763
6.77040881748884
1.71835662649449
4.31210427047718
6.16081338521635
-0.476354393033566
1.60227766016981
4.52087118201644
-0.556412189832867
2.30710427048136
5.02058220154816
-0.486816757562467
2.29158412042023
5.04994647549860
-0.427568051854079
2.30571726703248
5.05896407358516
-0.418665990328446
2.31450380538411
5.03263510353928
-0.425110452572738
2.32294386853910
5.07095971110038
-0.416901280191143
2.28603762756211
5.02893807998837
-0.439038276799232
2.31378529148820
5.06157043190363
-0.416521208056999
2.30618710732290
5.02885702647971
-0.434349801674422
2.32824335998063
5.08579816127496
-0.417523747464335
2.29995437227071
5.04239417172842
-0.406042697370693
2.35132050487346
5.11864543112879
-0.369906265503858
2.36734215628913
5.10455235056483
-0.344114028177171
2.42801976278848
5.20511537888608
-0.283665523962037
2.47335379835342
5.23533500265937
-0.198560253732774
2.56834477467103
5.35021174610968
-0.0987976807328623
2.63799324104295
5.40474617105409
-0.0243772306136516
2.73729978431364
5.49393887685736
0.00970170847962004
2.74626502885206
5.45779050035474
-0.0265602141391170
2.70988963641414
5.40130171578789
-0.128162311776602
2.54317430615075
5.22447323472227
-0.290103860444186
2.44111977446204
5.14730580597491
-0.372384098919958
2.33372681496840
5.03980021553513
-0.435002228843728
2.31099623837965
5.03695728648415
-0.457957414798822
2.25792889245213
4.96877787888176
-0.486248784412330
2.26952566185548
5.01526288968930
-0.474875428442143
2.24578746809289
4.97141325267704
-0.508836400885278
2.26171526941726
4.98722993830165
-0.483130719061500
2.23731006069167
4.96271395362280
-0.517757363744080
2.23257287329749
4.98786634216681
-0.517715279265824
2.21750477503280
4.94268818384677
-0.543003373631957
2.21210686998952
4.94718059480378
-0.528620518634118
2.17638029839788
4.89634472731628
-0.554565549979837
2.18532623654733
4.92518176966213
-0.570837267431716
2.14394589664605
4.86869294598255
-0.602434434907409
2.13224052668233
4.86687951615364
-0.634355780652571
2.09021141027037
4.80974277565400
-0.661599997360175
2.10285986654986
4.83228405541397
-0.669165742311001
2.05018725000101
4.76950472167552
-0.697051637526635
2.05219495031901
4.78140617583373
-0.700256269929209
1.99888439225019
4.72798985428886
-0.743778191479105
1.99525703545875
4.74425722829464
-0.762615919345244
1.96631437432642
4.69520980378828
-0.761767936061949
1.97705793783461
4.71584912123104
-0.761232689703985
1.92748928935649
4.68617675542783
-0.806008594048118
1.96261002650279
4.68119431537467
-0.796094028755677
1.91742178096386
4.64090344405919
-0.831487339530121
1.91192621829621
4.63530581830063
-0.837186838321452
1.86112503775718
4.60940314855441
-0.868190803508470
1.86001997213002
4.61819717873036
-0.879497480070284
1.82861278752816
4.55668968598993
-0.936105079801809
1.82690528316704
4.56988248056860
-0.903011781489697
1.80489929121278
4.52777740556874
-0.935215731123604
1.81759667656980
4.55037633675169
-0.947715042093687
1.76499933667051
4.49768118233786
-0.980507795406185
1.76210920125006
4.50469388280033
-0.988592039888069
1.72892823218064
4.44141641065784
-1.02696579239526
1.73045842318738
4.46285077023543
-1.03562703803587
1.70170179971023
4.41899899746476
-1.02457373039976
1.74766041861282
4.51986315965231
-0.973803791765752
1.77833636800867
4.51044535525831
-0.963315113340894
1.83873176699194
4.60074771367247
-0.928105555486026
1.74384876542230
4.44577239495454
-1.00817294795903
1.71868954370644
4.44052158962906
-1.06351509014707
1.60825631251869
4.29499751841930
-1.20412975130501
1.55255131261035
4.28420243202670
-1.22501467079431
1.48157681449501
4.20813861086106
-1.26116755835396
1.49533511827423
4.22680836481064
-1.27258609433434
1.44882855333938
4.17521403298014
-1.28926792994587
1.45705947813916
4.19335798342564
-1.28621068753669
1.41503027988073
4.15124261291216
-1.30341196083039
1.45774337431393
4.20387034664217
-1.26586931521582
1.51020120545486
4.48624363798389
-0.558580287979489
2.67240624531209
5.95336496820516
0.618457611384069
2.71936099360414
4.43023684621856
-1.90975309906630
0.671067977496821
3.65186180828332
-1.62320987402038
1.14252975134907
3.91324241773286
-1.49191014117271
1.29874889636963
4.02438126469666
-1.48085130152768
1.23472802040876
3.96028096582478
-1.51003072966440
1.24046975763192
3.98094416398083
-1.49444577403608
1.21597676822526
3.94637352797227
-1.53909375725509
1.20625173811532
3.93657175224621
-1.54897197639520
1.15629737869179
3.87154155659973
-1.58407770328221
1.16611642647562
3.90128568587009
-1.59940818478736
1.11571164284200
3.83080690965390
-1.63996064313792
1.12008581370599
3.86510802198030
-1.61573227621599
1.08924174923428
3.81419184102483
-1.64672025787735
1.11318228351977
3.86806120879165
-1.60792173824119
1.12191027428804
3.87171899079329
-1.59433384402569
1.17042860254371
3.92516807575368
-1.52595367884293
1.20374017230053
3.94341137528274
-1.50277832352803
1.27684791025709
4.04145182355133
-1.44480483645355
1.28975476544150
4.04429237697232
-1.40703025386355
1.35246370893389
4.09193601389374
-1.42445159018132
1.26997773350040
3.96438573424908
-1.56206583834544
1.13729985328798
3.84164455923407
-1.68986997014530
0.969433103482334
3.67371553097831
-1.84786093654739
0.896380539992374
3.62560171222023
-1.89603566802396
0.808145239103540
3.51230618594823
-1.96939107489819
0.764730297129024
3.49883205509714
-1.98792404767730
0.716138830081674
3.43518244216765
-2.04663145740217
0.717373973349537
3.44636048891843
-2.03551015598469
0.673438881317553
3.38736935599568
-2.09955697655014
0.674336727044636
3.37821222260960
-2.11876873377867
0.615070701904208
3.34389228616267
-2.13314222428055
0.615644015251470
3.35441276191920
-2.12267422691578
0.586059894059969
3.29477688264411
-2.16736150317037
0.581321582561982
3.30998789823689
-2.18220079750280
0.516432341881233
3.23504907540690
-2.23218883769531
0.516395449721290
3.23496369727767
-2.25732233522135
0.431214199971597
3.14473506304996
-2.31759798560048
0.415891902334815
3.15936648762838
-2.34301246877220
0.370431882004072
3.08886130127808
-2.38856244944284
0.344837479252359
3.09322284923654
-2.40424457745984
0.289112049117950
3.00245449135239
-2.50005548818500
0.273258960967506
2.98655960171992
-2.48599180285763
0.232281598207071
2.94554156831481
-2.54205012896222
0.201183357842066
2.94440379261684
-2.55322706059465
0.144967650156471
2.87314968922828
-2.59451917885882
0.153637898292931
2.90178268551659
-2.61092305222420
0.0871975379232721
2.82030622123013
-2.66243523689643
0.0806500168315597
2.82372374811214
-2.69905227721510
0.0289987945589948
2.76703872953957
-2.72577070601257
0.0122473420130298
2.75025464013466
-2.73758704500571
-0.0246008588960054
2.68837496537523
-2.78449780517151
-0.0465423156482545
2.70140320122972
-2.79649948714128
-0.0685735255087674
2.64934285376239
-2.83358858156421
-0.0356909758944183
2.72719743875449
-2.75076156951524
-0.0378911447706097
2.69997048131015
-2.75301492286081
0.0298294989855422
2.74266551547840
-2.77034510465437
-0.0925255048422881
2.63028608385706
-2.85274856953295
-0.119952608151830
2.57283573722430
-2.96522176408856
-0.277448254951527
2.42031803412632
-3.06276112726660
-0.330008881727525
2.39773654049283
-3.08536309076211
-0.367630917845909
2.33009482924889
-3.15302407940815
-0.400310785921324
2.33739647992884
-3.15574051155063
-0.438044902243699
2.27964507827519
-3.19850879946407
-0.455829677154044
2.27184421584817
-3.18632534973932
-0.468661515426604
2.24899748963489
-3.20418656367472
-0.456536816674575
2.29610850164612
-3.17708883766208
-0.284451975756462
2.80818085852715
-2.20002856360494
1.05259661684586
4.27021817116800
-1.24300212927961
0.789612574619782
2.44722405430166
-3.95100591877169
-1.39340048535701
1.59420212609910
-3.65403631283798
-0.836438942824725
1.93615600778975
-3.45708968932931
-0.664499174744196
2.08308932325287
-3.44016242356471
-0.727577555705668
1.99000569862594
-3.49325088875194
-0.735670458280428
1.99690876189834
-3.51635145636504
-0.773774253453033
1.93380214252214
-3.55446049655087
-0.806885311030790
1.92068947100548
-3.55257437853872
-0.840000000001615
1.86757437853457
-3.59568947100675
-0.843114688972440
1.88446049655248
-3.60880214251765
-0.906225746544444
1.82635145636376
-3.64690876189385
-0.904329541722791
1.82825088875355
-3.64500569862721
-0.942422444291804
1.79516242356632
-3.68808932325702
-0.930500825247540
1.82208968933092
-3.64115600779102
-0.933561057178499
1.81403631283670
-3.65420212609748
-0.886599514651964
1.86100591877042
-3.60722405430005
-0.854612574623000
1.87300212928122
-3.56021817116928
-0.792596616837587
1.97502856360366
-3.50318085852554
-0.760548024241016
1.97208883766369
-3.49610850164451
-0.743463183328643
1.98418656367633
-3.51899748963615
-0.836338484582366
1.83632534974094
-3.70184421584944
-0.999170322849180
1.70850879946280
-3.82964507827646
-1.15195509775378
1.54074051154647
-3.96239647993012
-1.23468921407615
1.47802407940688
-4.03009482924728
-1.32236908215156
1.39036309076660
-4.09773654049122
-1.34499111826995
1.38276112726821
-4.13531803412759
-1.41255174504595
1.30522176408728
-4.19783573722845
-1.44504739185140
1.29774856953167
-4.20528608385832
-1.49747449516094
1.23034510465598
-4.26266551547391
-1.49982949898301
1.25301492285953
-4.24497048130565
-1.53210885523261
1.19576156951685
-4.28219743875576
-1.55930902410305
1.21858858156581
-4.28434285376654
-1.57642647448872
1.13649948714001
-4.34640320123100
-1.59845768435497
1.13949780517024
-4.35337496537361
-1.65039914111297
1.06258704500444
-4.41525464013305
-1.68724734201051
1.04077070601131
-4.44203872954085
-1.73399879455073
0.969052277216711
-4.51372374811341
-1.77065001682904
0.962435236898030
-4.54030622123140
-1.83719753792650
0.875923052225804
-4.60178268551787
-1.85363789829615
0.879519178860428
-4.60814968922666
-1.91496765015970
0.813227060593385
-4.67440379261523
-1.94118335783954
0.802050128958060
-4.69054156831608
-1.99728159820454
0.725991802859237
-4.75655960171831
-2.00325896096498
0.735055488189492
-4.77745449135078
-2.05911204911543
0.654244577461443
-4.83322284923781
-2.07983747925558
0.663562449438677
-4.82886130128224
-2.11043188200730
0.608012468770938
-4.89436648762965
-2.14589190233804
0.592597985602091
-4.88973506304546
-2.18621419996907
0.537322335220078
-4.94996369727318
-2.19639544972450
0.537188837696913
-4.95504907540817
-2.24143234187871
0.482200797504409
-5.00498789824104
-2.25632158255372
0.477361503174862
-5.01477688264250
-2.30105989406319
0.417674226914514
-5.06441276192047
-2.30564401526044
0.433142224279286
-5.05889228616106
-2.35507070190169
0.353768733777394
-5.12821222260799
-2.37933672703636
0.374556976545978
-5.12236935599408
-2.41843888131502
0.305510155986300
-5.19136048891970
-2.44237397335276
0.316631457406657
-5.16518244216891
-2.46113883008490
0.247924047678916
-5.22883205509552
-2.48473029712651
0.269391074894045
-5.22230618594950
-2.49814523910677
0.216035668022696
-5.24060171221862
-2.45638053999559
0.307860936549008
-5.15371553097670
-2.44443310347981
0.294869970149787
-5.16164455923246
-2.41229985328545
0.292065838347050
-5.21438573425035
-2.50997773349788
0.194451590180043
-5.28193601389789
-2.53746370893712
0.172030253862279
-5.36429237697359
-2.69975476544473
0.0198048364522863
-5.46145182354684
-2.72684791025457
0.0127783235267622
-5.46841137528113
-2.77374017229800
-0.0590463211583501
-5.54016807575496
-2.79542860253544
-0.0456661559727052
-5.53671899079456
-2.84191027428552
-0.122078261757198
-5.58306120879004
-2.82818228352874
-0.0682797421239156
-5.54919184102610
-2.82924174924325
-0.0842677237823972
-5.56510802197869
-2.78508581370346
0.0749606431366523
-5.10580690965229
-1.92071164283373
1.32440818478609
-3.67628568587136
-0.921116426473100
1.06407770328381
-5.58154155660100
-3.58629737869501
-0.776028023600316
-5.88657175224748
-2.99125173811855
-0.265906242746179
-5.76137352797353
-2.99597676822274
-0.245554225968076
-5.73594416397922
-3.01046975762939
-0.269969270336873
-5.76528096582317
-3.04472802041197
-0.319148698470698
-5.80938126469505
-3.06374889636711
-0.333089858825680
-5.81324241773124
-3.08252975134654
-0.371790125978015
-5.85186180828459
-3.09606797750004
-0.365246900934971
-5.86023684622272
-3.13936099360163
-0.418457611385335
-5.90336496820643
-3.14240624531532
-0.386419712021780
-5.88624363797940
-3.16520120545807
-0.449130684785446
-5.92387034664056
-3.14274337431141
-0.391588039167999
-5.87624261291631
-3.17503027987246
-0.428789312461708
-5.89835798342691
-3.12205947813663
-0.370732070052529
-5.83521403297852
-3.09382855334835
-0.352413905666922
-5.79680836481191
-3.03533511828321
-0.258832441644427
-5.69313861085945
-2.96157681449249
-0.209985329206960
-5.67420243202509
-2.89255131260208
-0.120870248699138
-5.58999751841769
-2.86325631252191
-0.136484909851318
-5.63052158963033
-2.88368954370966
-0.161827052036476
-5.69077239495580
-3.00384876542552
-0.331894444515243
-5.85574771367374
-3.14873176698942
-0.446684886663255
-5.97544535526245
-3.28333636801190
-0.586196208235518
-6.08486315965069
-3.33766041861030
-0.610426269598626
-6.10899899746027
-3.39170179970770
-0.684372961962521
-6.16285077023381
-3.41545842319060
-0.673034207603128
-6.16641641066199
-3.45392823217811
-0.721407960110323
-6.20969388280448
-3.45210920125329
-0.699492204592204
-6.18268118233625
-3.46999933667374
-0.752284957907579
-6.23037633674720
-3.48759667657302
-0.744784268877665
-6.20777740556713
-3.50989929121025
-0.781988218511571
-6.25988248056988
-3.53190528315876
-0.758894920196581
-6.24168968599120
-3.52861278752563
-0.805502519928109
-6.28319717872874
-3.54001997213900
-0.801809196492799
-6.28440314855568
-3.57112503776615
-0.857813161676937
-6.33530581830190
-3.58192621829369
-0.833512660474027
-6.33090344405759
-3.61742178096133
-0.893905971245591
-6.38119431537306
-3.64761002650601
-0.888991405947396
-6.38617675542910
-3.66748928935397
-0.953767310291524
-6.42584912122943
-3.67705793783784
-0.933232063939319
-6.42020980378955
-3.71131437432964
-0.992384080658906
-6.48925722829591
-3.73025703545622
-0.996221808522161
-6.48798985428725
-3.77388439224767
-1.05474373006918
-6.56640617582924
-3.78219495031648
-1.03794836247176
-6.52950472167679
-3.79018724999848
-1.08083425769027
-6.55228405541812
-3.80785986655309
-1.05340000264109
-6.54474277565526
-3.82521141027360
-1.11064421934582
-6.59187951615203
-3.83724052668555
-1.08756556509386
-6.55869294597806
-3.83894589664927
-1.13416273256955
-6.61518176966052
-3.86532623654480
-1.11043445001855
-6.57634472732043
-3.87638029838960
-1.15637948136715
-6.62718059480504
-3.88210686998700
-1.13199662636643
-6.61768818384803
-3.89250477504177
-1.18728472073256
-6.65286634216808
-3.90757287330071
-1.14224263625719
-6.61771395362119
-3.89231006068339
-1.18186928094264
-6.66222993830004
-3.91671526941473
-1.16616359911599
-6.65641325267542
-3.93578746809611
-1.21012457155337
-6.68026288969056
-3.93952566185295
-1.19375121558318
-6.64877787888015
-3.91292889245535
-1.19704258520244
-6.65195728648542
-3.88099623838287
-1.09499777116042
-6.55480021553928
-3.82872681497162
-1.09761590108131
-6.54730580597330
-3.78611977445951
-1.03489613955420
-6.55947323471778
-3.83317430614822
-1.13183768822179
-6.61630171578915
-3.87988963641161
-1.14343978586215
-6.68779050035888
-3.99126502884953
-1.27470170847801
-6.76393887685862
-4.03729978431687
-1.29062276938761
-6.73974617105247
-4.02299324104617
-1.29120231926840
-6.78021174610807
-4.02834477467425
-1.29143974626561
-6.75533500265776
-4.03335379835089
-1.30633447603923
-6.77511537888447
-4.01801976278020
-1.26588597182410
-6.73955235056322
-3.99734215629235
-1.26509373449453
-6.73364543113006
-3.96132050488243
-1.16395730262770
-6.42239417172969
-3.27995437227393
-0.0824762525369294
-5.02079816127623
-2.02824335997810
0.234349801670280
-6.28385702647810
-4.48118710732037
-2.00847879194427
-7.26157043190202
-4.23878529149142
-1.41096172319628
-6.86893807998964
-4.06103762755958
-1.28309871980437
-6.75095971109877
-4.02294386854232
-1.27488954742853
-6.74763510354055
-4.02950380538733
-1.28633400967570
-6.77396407358642
-4.01571726703570
-1.24743194814431
-6.74994647549699
-4.04158412041770
-1.30818324243880
-6.76558220154367
-4.00710427047883
-1.25358781016552
-6.73587118201771
-4.01727766016728
-1.29864560696482
-6.78081338522049
-4.02210427047465
-1.26335662649575
-6.75040881749011
-4.01158412042085
-1.27772090044828
-6.73465752319483
-3.97571726704043
-1.22673849853406
-6.70855958472543
-3.95450380538787
-1.22540952849027
-6.68711512248035
-3.91294386853294
-1.14873413604770
-6.60532429486116
-3.85103762755752
-1.11171250493778
-6.57318729824941
-3.78378529149094
-1.00934485684938
-6.45570436699660
-3.71618710732722
-0.951631451427549
-6.40787577337839
-3.63324335998077
-0.838572586224887
-6.29470182758769
-3.56495437226667
-0.840168596680439
-6.30618287767767
-3.56632050487674
-0.831419856077140
-6.34231930954659
-3.64734215629399
-0.957326775509520
-6.48311154687537
-3.76801976278341
-1.04788980383286
-6.55356005109259
-3.87335379834992
-1.14810942761111
-6.63366532132107
-3.89834477467486
-1.15298617105776
-6.63342789432019
-3.90799324104260
-1.20752059600138
-6.68784834443574
-3.91729978431487
-1.16171330180674
-6.64692728352823
-3.90126502884911
-1.18556492530333
-6.67566536091446
-3.90988963641276
-1.14407614073569
-6.60406326327618
-3.88317430614520
-1.13224765966641
-6.62212171460781
-3.85111977446381
-1.10008023092401
-6.56484147613126
-3.84872681497175
-1.11257464048633
-6.59222334620957
-3.82099623837882
-1.06473171143456
-6.54926816025369
-3.81292889244712
-1.08655230382850
-6.57097679063652
-3.81952566185205
-1.05303731463813
-6.51735014660592
-3.81078746809678
-1.08918767762221
-6.58338917416775
-3.83171526941697
-1.07500436324891
-6.53909485599074
-3.81731006069296
-1.09548837856928
-6.55946821130737
-3.82257287330035
-1.05564076711825
-6.54951029578484
-3.79750477503723
-1.07046260879454
-6.54422220141792
-3.80710686998403
-1.04495501975077
-6.52860505641785
-3.79638029839397
-1.05911915226536
-6.55266002507134
-3.80032623654498
-1.03295619461042
-6.50638830762443
-3.78894589665103
-1.05146737093005
-6.51979114014507
-3.76224052668313
-1.02965394110036
-6.49286979439625
-3.76021141027275
-1.03251720060280
-6.52062557768786
-3.74285986655382
-0.980058480361994
-6.45305983274199
-3.73018725000078
-1.01227914662275
-6.48017393752557
-3.71719495031461
-0.969180600780167
-6.43696930512221
-3.71888439225312
-0.985764279237389
-6.46844738357153
-3.70025703546325
-0.932031653242390
-6.40460965570748
-3.68631437432674
-0.962984228738110
-6.44045763898999
-3.66705793783075
-0.913623546180078
-6.38599288534716
-3.64748928935421
-0.903951180376088
-6.37121698100224
-3.57261002650784
-0.793968740319267
-6.25113154629677
-3.52242178096472
-0.748677869005882
-6.18573823552154
-3.43192621829290
-0.698080243252278
-6.20003873672942
-3.50112503775544
-0.752177573505270
-6.21403477154449
-3.48001997213561
-0.750971603677551
-6.29272809497902
-3.57361278752382
-0.849464110936337
-6.33112049524958
-3.58690528316427
-0.847656905517106
-6.30921379356378
-3.58989929121158
-0.860551830519325
-6.34700984393196
-3.58259667657593
-0.803150761698609
-6.26951053295822
-3.53999933667247
-0.805455607283998
-6.28671777964205
-3.52710920125359
-0.742468307751438
-6.19863353515939
-3.45392823217424
-0.719190835608157
-6.19525978266003
-3.41545842318255
-0.615625195182081
-5.91659853701576
-2.77670179970698
0.448226577589376
-4.48765184465108
-1.33266041861690
1.17236241539974
-5.19842178328718
-3.55333636801433
-1.42821978020835
-6.82891046171126
-3.74873176698766
-0.788522138621727
-6.20412001956533
-3.40884876541959
-0.628546819905879
-6.10905262708866
-3.35368954370531
-0.593296014576742
-6.06371048490558
-3.31325631252489
-0.582771943366201
-6.06309582374974
-3.28255131260662
-0.506976856975681
-5.98221090425965
-3.27157681449285
-0.540913035812131
-6.00105801669634
-3.26033511827940
-0.484582789760922
-5.95463948071804
-3.21382855334613
-0.477988457926760
-5.94295764510286
-3.18705947813597
-0.416132408371481
-5.88101488751413
-3.14003027987913
-0.399017037860085
-5.88381361421963
-3.11274337431389
-0.326644771589304
-5.78635625983917
-3.05020120545638
-0.289018062930240
-5.75864528707184
-2.98240624531520
-0.191139393156469
-5.64068318643461
-2.87436099360308
-0.123011271169099
-5.57747247598345
-2.78606797749732
-0.00463623323305606
-5.44401570103146
-2.67752975133964
0.0789831573210642
-5.37031543387834
-2.58874889636754
0.192844310355180
-5.26137427352258
-2.51972802041399
0.216944609227843
-5.27719484538796
-2.54546975763873
0.181281411072575
-5.33777980101550
-2.63597676822214
0.0508520470790570
-5.45313181779569
-2.72625173811377
0.000653822803025950
-5.48325359865479
-2.77129737869181
-0.0643159815468342
-5.54814787176988
-2.81111642647722
-0.0490601108164155
-5.50281739026394
-2.77571164283943
-0.0535813346023044
-5.51226493191546
-2.76508581370498
-0.00288244693079465
-5.47149329883373
-2.72924174923484
0.00303373402546203
-5.47550531717446
-2.71318228352191
0.0441643662623075
-5.41930383680695
-2.67691027428601
0.0555065842585765
-5.42289173102455
-2.65042860254326
0.127057499298966
-5.34627189621227
-2.61374017230164
0.123814199767824
-5.34944725152638
-2.58184791025403
0.185773751502899
-5.29242073859719
-2.53975476544576
0.182933198076944
-5.29019532118642
-2.53746370893398
0.240289561156310
-5.22777398487074
-2.49497773349631
0.222839840801761
-5.25015973670870
-2.51229985327970
0.270581015820425
-5.19735560490518
-2.45943310348139
0.258510044074105
-5.22436463850230
-2.45638053999876
0.306623862832975
-5.15618990702781
-2.43814523911151
0.304919389102873
-5.18783450015568
-2.41973029712130
0.348393519954758
-5.10930152737291
-2.39113883008128
0.342043132882164
-5.12559411764438
-2.37737397335071
0.395865086135038
-5.08671541906681
-2.35343888131455
0.384856219058567
-5.08266859850347
-2.31433672704321
0.439013352442571
-5.03345684127414
-2.29507070190436
0.443333288887414
-5.05408335077434
-2.30564401525895
0.457812813131668
-5.00955134813545
-2.27605989405751
0.462448692410419
-4.99986407187720
-2.25132158255536
0.542237676812674
-4.93002477754973
-2.18643234187618
0.552176499643455
-4.92503673735932
-2.17639544972355
0.582261877776347
-4.88490323983249
-2.13621419996969
0.592490512004853
-4.87962758944970
-2.12589190234023
0.627859087421462
-4.81921310627719
-2.08043188200532
0.643364273772532
-4.81866312560865
-2.05983747925517
0.699002725814875
-4.77798099759085
-2.01911204911083
0.714771083702692
-4.76217008686490
-1.99325896096772
0.765665973333071
-4.68623377219148
-1.95728159820886
0.781684006736088
-4.69517544609187
-1.94618335784543
0.812821782434847
-4.62399851445864
-1.88996765015565
0.834075885821332
-4.62770639619080
-1.86363789829368
0.905442889533792
-4.56130252282752
-1.82219753792560
0.926919353823918
-4.51979033815451
-1.71565001682971
1.06850182694269
-4.37817329783505
-1.62899879455873
1.11018684551029
-4.35645486903966
-1.61724734201433
1.14697093491600
-4.33963853004861
-1.60039914110687
1.11885060967622
-4.34772776987915
-1.61845768435044
1.11582237382250
-4.36572608790859
-1.64642647449151
1.06288272128775
-4.42363699348775
-1.68430902410168
1.06502813629645
-4.37646400553880
-1.62710885523281
1.10725509374157
-4.36921065219245
-1.60482949898478
1.14456005957698
-4.28688047039523
-1.54747449516428
1.17693949119336
-4.27447700551588
-1.52004739185057
1.23938983782691
-4.20700381096235
-1.45255174504092
1.31190754092567
-4.13446444778639
-1.25499111826651
1.81948903455996
-3.15186248428722
0.142630917844545
3.35713074580468
-2.10920149564613
-0.0446892140816243
1.55482909512262
-4.69148506350288
-1.92695509775507
1.19258049677420
-4.10371677558865
-1.35417032284054
1.39538135919913
-4.03590022530973
-1.26133848457530
1.45822808541607
-4.02803901137641
-1.26846318332891
1.50611707340850
-3.94013673738827
-1.20054802424284
1.52904471652825
-3.95219701144752
-1.19759661684098
1.57700740387957
-3.88922344577205
-1.14961257462224
1.58500152074958
-3.89121965628206
-1.13159951465277
1.64302344895292
-3.81318926221211
-1.07356105717513
1.66106956726306
-3.81013588571999
-1.04550082525149
1.72413625179784
-3.72706315148667
-0.987422444291573
1.76221987642557
-3.71397468630153
-0.934329541718388
1.83531681315683
-3.61587411868765
-0.871225746547363
1.88342343253095
-3.55776507849815
-0.783114688976933
1.98153610404551
-3.44465119651527
-0.675000000001936
2.08465119651434
-3.38153610404645
-0.576885311021175
2.21776507850009
-3.20842343253188
-0.433774253450745
2.33587411868671
-3.11531681315489
-0.330670458279720
2.45397468630059
-2.98221987642650
-0.237577555712287
2.48206315148573
-3.01413625179591
-0.309499174752384
2.41013588572192
-3.07606956726112
-0.381438942822983
2.29818926221117
-3.20802344895099
-0.478400485351092
2.26621965628112
-3.22000152075051
-0.495387425381636
2.22422344577399
-3.25700740388338
-0.512403383157124
2.25719701144945
-3.22904471652632
-0.484451975755259
2.24013673738734
-3.22111707340944
-0.476536816674964
2.30303901137549
-3.15322808541701
-0.423661515422804
2.30590022531166
-3.17038135920006
-0.395829677151818
2.35871677558771
-3.09758049677227
-0.363044902248794
2.37148506350482
-3.09482909512357
-0.335310785922247
2.41420149564520
-3.03213074580561
-0.302630917842654
2.44186248428627
-3.02948903456089
-0.265008881731591
2.49446444778258
-2.97190754092374
-0.237448254957184
2.49700381096429
-2.97938983782497
-0.219952608147546
2.53447700551781
-2.93193949119430
-0.177525504833821
2.52688047039716
-2.93956005957792
-0.190170501013328
2.58421065219153
-2.88725509374252
-0.162891144771060
2.58146400553787
-2.87502813629737
-0.115690975902195
2.64363699348681
-2.83788272128582
-0.0985735255123502
2.64072608791053
-2.83082237382057
-0.0815423156419130
2.67772776987821
-2.78885060967715
-0.0496008588912491
2.68963853004767
-2.79697093491694
-0.0327526579837721
2.74145486904159
-2.73518684551124
0.0239987945548555
2.74817329783699
-2.72850182694075
0.0306500168316036
2.78979033815069
-2.66691935382485
0.0571975379217362
2.79630252282658
-2.68044288953473
0.0586378982955723
2.82770639619274
-2.62407588582227
0.104967650157544
2.84399851445770
-2.61782178243291
0.126183357841554
2.90017544609380
-2.55168400673990
0.192281598205000
2.91123377219342
-2.56566597333401
0.188258960969607
2.95717008686684
-2.50477108370075
0.244112049112725
2.98298099758991
-2.48900272581294
0.264837479251307
3.06366312561058
-2.34836427377060
0.405431882007208
3.17921310627913
-2.30785908742240
0.475891902342123
3.25962758945164
-2.20749051200291
0.516214199971579
3.24490323983155
-2.27226187777728
0.471395449719692
3.25003673735838
-2.21717649964439
0.491432341878066
3.17002477754880
-2.33223767681360
0.411321582557250
3.16486407187626
-2.29244869240848
0.426059894059411
3.15955134813451
-2.31281281313260
0.435644015255084
3.19908335077341
-2.23833328888835
0.490070701906248
3.23845684127608
-2.24401335244351
0.534336727039349
3.28766859850540
-2.15485621905664
0.598438881316448
3.34171541906588
-2.13586508613598
0.642373973346843
3.43559411764632
-1.97204313288309
0.996138830083167
4.15930152737484
-0.748393519952819
2.58473029712895
5.43283450015474
-0.749919389100944
0.883145239107637
2.82618990702689
-2.73662386283390
0.301380539994888
3.26936463850423
-2.12351004407503
0.699433103483287
3.49235560490424
-1.95058101581850
0.782299853281602
3.54015973670489
-1.91283984080270
0.844977733492441
3.58277398487268
-1.90528956115437
0.847463708935867
3.61019532118835
-1.84293319807788
0.899754765447661
3.63242073859627
-1.84577375150385
0.916847910255917
3.68444725152545
-1.77381419977163
0.948740172297772
3.69127189621133
-1.77205749929703
0.990428602539398
3.74789173102361
-1.71050658425951
1.02191027428790
3.76930383680602
-1.70916436626037
1.05318228352955
3.83050531717352
-1.61303373402639
1.14424174923673
3.87649329883566
-1.59211755307014
1.19008581370688
3.96726493191740
-1.47141866539864
1.28571164283556
4.05781739026588
-1.39093988918165
1.38611642647336
4.17314787176606
-1.26068401845410
1.51629737868795
4.27825359865386
-1.19565382280396
1.58125173811566
4.37313181779763
-1.04085204707712
1.70597676822402
4.41277980101743
-1.08128141107064
1.64046975763487
4.35219484538702
-1.13194460923166
1.57472802041588
4.27637427352452
-1.23784431035612
1.45874889636943
4.19031543387740
-1.29398315731913
1.41252975134153
4.10901570103053
-1.37036376676788
1.39606797749346
4.14747247598539
-1.32198872882897
1.41436099360497
4.15068318643655
-1.33386060684446
1.40740624531709
4.18364528707090
-1.29098193706782
1.46020120545828
4.18635625983823
-1.29835522841163
1.45274337431003
4.22381361422157
-1.25098296213798
1.49503027987526
4.23601488751319
-1.22886759162658
1.50705947813787
4.27295764510192
-1.16701154207131
1.56382855334226
4.30963948071711
-1.18041721024002
1.58033511827553
4.36605801669828
-1.09908696418880
1.61157681449474
4.35221090426158
-1.12802314302526
1.62255131260276
4.38309582374881
-1.07222805663474
1.67325631252102
4.39371048490465
-1.09170398542419
1.66868954370720
4.41905262709059
-1.03145318009505
1.68384876542149
4.40912001956439
-1.06147786137634
1.67873176698956
4.42891046171319
-1.03178021978971
1.70833636801046
4.45342178328624
-1.01236241540068
1.73266041861879
4.48765184465301
-0.983226577590315
1.75670179970887
4.49159853701483
-0.984374804815988
1.74545842318444
4.48025978265622
-0.935809164392776
1.80892823217037
4.52363353516132
-0.942531692249501
1.80710920125549
4.57671777964399
-0.889544392714071
1.83499933667436
4.55951053295728
-0.916849238302330
1.84259667657207
4.59700984393102
-0.849448169484484
1.89489929120772
4.62421379356571
-0.857343094480963
1.90690528316041
4.68612049524864
-0.740535889061726
2.01361278752571
4.74772809497808
-0.729028396323382
2.05501997213750
4.83403477154356
-0.622822426495670
2.11112503776309
4.80503873673136
-0.696919756748662
2.05192621829479
4.81073823552348
-0.671322130995058
2.03242178096661
4.71113154629583
-0.786031259681672
1.96761002650397
4.70621698099843
-0.781048819624852
1.94748928935610
4.67099288534622
-0.801376453820861
1.94705793783264
4.70045763898905
-0.757015771259954
1.97131437432863
4.71960965570942
-0.752968346755678
2.00025703545939
4.74844738357347
-0.699235720766426
2.04388439225501
4.77196930512415
-0.700819399220773
2.05219495031649
4.83017393752463
-0.622720853375311
2.13018724999691
4.93805983274105
-0.239941519636074
2.98785986654995
6.23062557768979
1.27751720060186
4.25021141028040
6.50286979439818
-0.0353460588977073
1.61724052668502
3.97979114014413
-1.23853262907089
1.79894589664717
4.65638830762349
-0.777043805390522
2.04532623654687
4.84766002507328
-0.595880847732706
2.11638029839010
4.84360505641691
-0.625044980247299
2.13210686998592
4.89922220141698
-0.559537391206399
2.16750477503336
4.89451029578102
-0.589359232882686
2.16757287329648
4.88946821130643
-0.544511621428790
2.20231006068909
4.90409485599268
-0.559995636752031
2.18671526941886
4.92838917416681
-0.525812322375860
2.21078746809866
4.93735014660785
-0.536962685359937
2.22452566185394
4.99597679063845
-0.468447696172436
2.27792889244901
5.00426816025562
-0.465268288566381
2.30599623838070
5.09222334621151
-0.367425359511735
2.38372681496788
5.13484147613031
-0.334919769076929
2.42611977445994
5.22212171460687
-0.217752340331657
2.56317430615284
5.30906326327524
-0.140923859262375
2.63488963641465
5.41566536091351
-0.0294350746947316
2.72126502884524
5.46192728353016
-0.00828669819420647
2.72229978431675
5.45784834443768
-0.0424794039995637
2.66799324104448
5.33842789432213
-0.187013828943182
2.50334477467099
5.22366532131725
-0.291890572392711
2.41835379834606
5.12856005109165
-0.382110196165206
2.34301976277955
5.08811154687443
-0.392673224488546
2.35234215629588
5.05731930954565
-0.438580143920925
2.31132050487863
5.05618287767961
-0.399831403317628
2.31995437227431
5.03970182758963
-0.431427413776054
2.31324335997690
5.06287577338033
-0.413368548573394
2.32618710732335
5.05070436699854
-0.430655143151561
2.31878529148707
5.06818729824846
-0.383287495063160
2.35103762755366
5.07532429485734
-0.406265863950362
2.33794386854057
5.09711512247941
-0.384590471507800
2.36450380538976
5.08855958472449
-0.398261501464011
2.34071726704231
5.09965752319677
-0.352279099555536
2.37158412042273
5.08540881749204
-0.386643373508064
2.33710427047654
5.10081338522243
-0.376354393036120
2.35727766016341
5.08087118201389
-0.431412189832545
2.32210427047496
5.08558220154561
-0.381816757562145
2.34658412041959
5.05994647549604
-0.427568051853757
2.32571726704334
5.05896407358548
-0.393665990322371
2.33950380538921
5.05263510354248
-0.450110452569539
2.28794386853845
5.05095971110070
-0.416901280193697
2.33103762756147
5.03893807998869
-0.459038276804663
2.27878529148756
5.04657043190396
-0.416521208056678
2.29618710731651
5.02885702647716
-0.464349801671224
2.27824335997424
5.02579816127528
-0.427523747461136
2.30995437227582
5.03239417173162
-0.441042697373247
2.30632050487856
5.07364543112911
-0.364906265503536
2.38734215629424
5.10955235056515
-0.349114028179725
2.40301976278209
5.18511537888641
-0.288665523961714
2.41835379834703
5.11533500265969
-0.383560253732453
2.36334477467613
5.09521174610713
-0.388797680732540
2.29299324104230
4.97474617105153
-0.554377230613331
2.17729978431300
4.91393887685767
-0.550298291520058
2.17626502885141
4.90279050035794
-0.586560214135917
2.13488963641349
4.90630171578821
-0.578162311776278
2.16817430614435
4.89447323471971
-0.585103860446743
2.14611977446139
4.91230580597523
-0.537384098919638
2.18872681496775
4.91480021554121
-0.570002228840528
2.18599623837900
4.95695728648447
-0.502957414798498
2.30292889245149
5.26877787888208
0.263751215585113
3.60452566185484
6.91526288968962
1.50012457155530
3.47578746809799
5.05641325267448
-1.28383640088208
1.36671526941661
4.45722993830197
-0.793130719061180
1.99231006069102
4.74271395362312
-0.672757363743760
2.10757287329684
4.88286634217002
-0.617715279268381
2.09750477503790
4.83268818384421
-0.653003373634512
2.09710686998313
4.83718059480410
-0.623620518633796
2.08638029838574
4.83634472731660
-0.679565549979514
2.06532623654668
4.83518176966245
-0.635837267428516
2.09394589665116
4.81369294597999
-0.687434434904211
2.06724052668743
4.80687951615396
-0.654355780655128
2.06521141027548
4.80974277565720
-0.681599997362731
2.05785986654922
4.81228405542005
-0.634165742310679
2.10018724999461
4.82950472167297
-0.662051637529193
2.09219495031261
4.84640617582829
-0.595256269928887
2.14388439225530
4.90298985428630
-0.568778191475904
2.19525703546386
4.96425722829496
-0.447615919339164
2.30131437433153
5.05520980379148
-0.391767936064502
2.33705793783397
5.12584912123136
-0.316232689706542
2.44748928935585
5.17117675542815
-0.316008594053554
2.44261002650215
5.18619431536924
-0.326094028755360
2.37242178095746
5.04090344405664
-0.491487339526919
2.20692621828982
4.90530581830095
-0.617186838321132
2.06112503776229
4.73940314855473
-0.788190803508147
1.92501997214087
4.66319717873068
-0.799497480069961
1.92861278752751
4.63168968599313
-0.871105079804365
1.85690528316064
4.58988248057181
-0.873011781489381
1.83489929120639
4.54277740556906
-0.935215731120406
1.79259667657490
4.55537633674913
-0.922715042093367
1.78999933666987
4.52268118233529
-0.955507795405866
1.77710920126091
4.53469388280353
-0.918592039887747
1.81892823217999
4.51641641066105
-0.966965792394936
1.75545842318673
4.52785077023287
-0.935627038038424
1.80170179970958
4.49899899746220
-0.994573730402327
1.74766041861218
4.48486315965263
-1.00380379176543
1.71333636800803
4.45544535525862
-1.04331511333769
1.67873176698555
4.43574771367279
-1.03310555548570
1.69384876542166
4.41077239495774
-1.10317294796159
1.64868954371154
4.39552158962938
-1.09851509014675
1.64325631252379
4.35999751841962
-1.15412975129893
1.58755131260396
4.33920243202702
-1.13001467079399
1.59157681449437
4.31813861086139
-1.17616755835364
1.53033511827933
4.30180836481384
-1.18258609433402
1.55882855334449
4.28521403297758
-1.23426792994843
1.49205947813277
4.25835798342596
-1.22121068753636
1.50003027988008
4.24624261291248
-1.21341196083006
1.55274337431329
4.31387034664249
-1.16586931521263
1.58520120545995
4.36624363798134
-1.09358028798205
1.61240624531719
4.31836496820836
-1.17154238861561
1.55436099360350
4.29023684622465
-1.22975309906885
1.46106797749618
4.15686180828364
-1.35320987402006
1.36752975134267
4.08324241773031
-1.44691014117527
1.29374889636324
4.04938126469409
-1.41585130152736
1.30972802041385
4.01028096582222
-1.47503072966120
1.25546975763702
4.01094416398116
-1.46944577403000
1.24597676822461
3.97637352797547
-1.50409375725765
1.23625173812043
3.98157175224940
-1.46397197640064
1.28629737869114
4.00154155660005
-1.46907770328477
1.29611642646923
4.26628568586754
-0.769408184787036
2.46571164282986
5.72580690965133
0.610039356865284
3.04508581371110
4.83510802198062
-1.81573227621567
0.289241749239382
3.12919184102515
-1.99672025787703
0.923182283530615
3.73806120879197
-1.68292173824663
1.11191027428740
3.83171899079649
-1.66933384402825
1.07042860253732
3.82016807575689
-1.66095367884261
1.08874017229987
3.78841137528019
-1.72777832352771
1.01184791025645
3.77645182354588
-1.68980483645323
1.03475476544086
3.73929237697264
-1.76203025386035
0.972463708938989
3.72693601389694
-1.74445159017812
0.989977733499750
3.68438573425227
-1.80706583834511
0.932299853281585
3.70164455923151
-1.78486997014786
0.934433103481685
3.66371553097864
-1.84286093654996
0.891380539991721
3.65560171222056
-1.80103566802364
0.938145239102896
3.66730618594854
-1.81439107489499
0.944730297122642
3.70883205509746
-1.74292404767986
1.00613883008677
3.74018244216797
-1.71663145740472
1.04237397335464
3.79636048891875
-1.62051015598436
1.13843888131690
3.86736935599600
-1.60455697654982
1.13433672703824
3.90821222260993
-1.53876873377834
1.20507070190356
3.90889228616299
-1.61814222427735
1.09064401525658
3.79441276191951
-1.71767422691547
0.961059894059331
3.62977688264155
-1.91736150317293
0.771321582549844
3.46998789824009
-2.03220079750247
0.691432341880590
3.37504907540722
-2.15218883769499
0.576395449720641
3.29996369727512
-2.16732233521815
0.556214199970943
3.26973506304740
-2.23759798560304
0.495891902339913
3.22436648763158
-2.24301246877189
0.480431882003434
3.17386130128417
-2.31356244944251
0.404837479251720
3.15322284923686
-2.33424457745952
0.409112049111554
3.12745449134983
-2.37005548818755
0.353258960972604
3.11155960171735
-2.35099180285731
0.382281598206422
3.08554156831513
-2.41205012895613
0.306183357847164
3.06940379261717
-2.40822706059433
0.324967650155828
3.03314968922859
-2.45451917886138
0.258637898298034
2.98678268551979
-2.47092305222676
0.252197537922623
2.95030622122757
-2.54743523689898
0.175650016825164
2.93372374810958
-2.55905227721477
0.168998794546852
2.88203872953989
-2.62577070600937
0.0972473420181329
2.83025464013499
-2.65758704500251
0.0703991411148336
2.77837496537554
-2.72449780517118
0.0134576843568538
2.75640320123292
-2.73649948714384
-0.00857352550940571
2.69934285376847
-2.78858858156677
-0.0656909759008141
2.68219743875481
-2.82076156951491
-0.0678911447712645
2.64997048130758
-2.86801492286049
-0.165170501015096
2.57766551547296
-2.88534510465406
-0.157525504831444
2.55528608385737
-2.93274856952975
-0.184952608146733
2.57783573722750
-2.86522176408534
-0.127448254952171
2.60031803412952
-2.89276112726916
-0.135008881728174
2.63273654049028
-2.84036309076755
-0.147630917846563
2.53509482924921
-2.96802407940783
-0.235310785927720
2.49239647992628
-3.00574051154743
-0.333044902250078
2.33964507827551
-3.18850879946087
-0.470829677154688
2.26184421585138
-3.22132534974188
-0.498661515421507
2.22899748963520
-3.27418656367439
-0.561536816669478
2.20110850164643
-3.27208883766176
-0.549451975757111
2.16318085852748
-3.33002856360461
-0.607403383160540
2.13021817117121
-3.33300212927929
-0.580387425375110
2.14722405430198
-3.35600591877138
-0.603400485351904
2.16420212609653
-3.25403631283766
-0.311438942825369
2.86615600779006
-2.06208968932898
1.25050082525516
4.23808932325607
-1.75516242356438
-0.182577555706318
1.44500569862626
-4.29325088875162
-1.21067045828108
1.82690876189578
-3.61135145636471
-0.858774253453688
1.89380214251958
-3.54946049655344
-0.836885311025682
1.88568947100868
-3.59257437853553
-0.860000000002253
1.86257437853489
-3.64068947100643
-0.933114688973083
1.80946049655280
-3.65380214252021
-0.916225746550840
1.79135145636408
-3.70690876189641
-0.979329541717699
1.76825088875100
-3.71000569862401
-0.962422444292458
1.72016242356664
-3.76308932325094
-1.04550082524818
1.70708968933124
-3.76115600779070
-1.04356105717914
1.68403631283990
-3.83420212610005
-1.09659951464686
1.67600591877363
-3.78722405430261
-1.05961257462366
1.66800212927865
-3.81521817116895
-1.07259661684973
1.67502856360110
-3.76318085852522
-1.00054802424167
1.74708883766402
-3.74610850164419
-0.988463183323546
1.79418656367377
-3.63399748963295
-0.871338484571517
1.88132534974125
-3.59184421585201
-0.849170322844078
1.92850879946599
-3.51964507827902
-0.771955097754428
1.94574051155256
-3.56739647992979
-0.874689214082549
1.83802407940432
-3.68009482924695
-1.00736908215795
1.66536309076116
-3.88773654049090
-1.22499111827059
1.45776112726565
-4.04031803412439
-1.33755174504085
1.36022176408760
-4.15783573722236
-1.46004739184629
1.29274856953487
-4.19528608385800
-1.47247449516158
1.25034510465631
-4.27766551547648
-1.55482949898367
1.18301492285986
-4.28997048131109
-1.54210885523326
1.16076156951140
-4.35719743875544
